Column1,Column2,Column3
625,196,0
576,100,0
2809,256,0
324,400,0
1,225,0
1369,16,0
1936,4,0
16,64,0
169,64,0
256,81,0
0,196,0
900,289,0
16,81,0
900,49,0
64,169,0
256,144,0
144,25,0
1225,36,0
49,169,0
16,121,0
400,16,0
625,49,0
0,169,0
9,81,0
1156,36,0
784,144,0
49,196,0
529,81,0
2025,100,0
676,225,0
4,225,0
361,81,0
529,100,0
169,225,0
441,121,0
169,36,0
400,144,0
121,225,0
81,100,0
529,36,0
400,121,0
4,144,0
729,64,0
2704,36,0
576,169,0
9,256,0
484,81,0
1296,100,0
9,225,0
324,169,0
121,49,0
36,144,0
900,289,0
400,121,0
400,16,0
81,81,0
529,196,0
1,121,0
1296,100,0
576,225,0
9,196,0
441,49,0
1089,64,0
16,169,0
25,100,0
484,1,0
784,25,0
0,121,0
4,64,0
1936,9,0
2209,16,0
225,25,0
324,36,0
1369,121,0
324,400,0
16,361,0
81,144,0
256,169,0
324,289,0
784,169,0
100,49,0
441,100,0
144,121,0
169,16,0
576,9,0
529,144,0
0,225,0
400,81,0
2209,64,0
576,225,0
0,289,0
256,144,0
529,196,0
25,361,0
121,196,0
361,64,0
289,196,0
361,361,0
81,169,0
841,16,0
784,49,0
9,64,0
144,16,0
841,25,0
64,144,0
169,169,0
25,49,0
256,64,0
49,169,0
36,121,0
1369,9,0
2116,9,0
49,81,0
4,100,0
1444,100,0
1764,196,0
81,225,0
64,121,0
441,144,0
64,289,0
961,225,0
4,81,0
576,64,0
9,169,0
196,121,0
441,49,0
841,121,0
1,256,0
1,100,0
841,25,0
529,100,0
9,169,0
400,36,0
1764,16,0
324,121,0
9,121,0
361,36,0
841,121,0
0,324,0
81,225,0
361,100,0
400,144,0
196,196,0
169,81,0
400,36,0
225,121,0
225,121,0
64,36,0
324,49,0
81,169,0
1,144,0
1296,16,0
2704,25,0
144,169,0
9,225,0
1089,64,0
1521,49,0
36,196,0
100,169,0
361,121,0
4,256,0
529,324,0
16,169,0
1024,81,0
4,169,0
361,196,0
144,100,0
841,121,0
0,225,0
36,196,0
484,100,0
484,81,0
1,144,0
144,81,0
1521,25,0
324,25,0
25,25,0
361,9,0
1764,25,0
361,144,0
9,225,0
676,144,0
729,144,0
9,225,0
1,196,0
625,121,0
169,144,0
529,196,0
400,64,0
144,9,0
196,64,0
9,169,0
529,100,0
1296,49,0
169,121,0
49,225,0
1600,81,0
2025,36,0
9,196,0
81,225,0
169,100,0
1,121,0
676,324,0
49,289,0
676,121,0
64,169,0
256,289,0
49,144,0
841,36,0
25,81,0
25,100,0
484,25,0
1024,25,0
100,144,0
25,196,0
576,36,0
361,25,0
1,144,0
225,144,0
1849,16,0
1225,9,0
289,121,0
484,169,0
676,81,0
0,81,0
100,121,0
121,49,0
169,49,0
256,169,0
289,256,0
196,121,0
196,121,0
169,225,0
9,169,0
676,64,0
361,100,0
16,196,0
576,121,0
1444,49,0
144,100,0
4,144,0
1089,36,0
1764,25,0
4,169,0
121,256,0
81,169,0
4,196,0
1225,361,0
196,289,0
676,100,0
324,81,0
4,100,0
256,49,0
1089,36,0
4,144,0
441,144,0
64,64,0
784,64,0
9,169,0
16,144,0
2401,25,0
3025,16,0
144,100,0
25,100,0
1296,36,0
841,64,0
4,144,0
16,144,0
324,121,0
100,256,0
841,361,0
9,169,0
729,64,0
16,121,0
16,121,0
441,64,0
361,81,0
36,196,0
9,144,0
900,64,0
196,100,0
169,81,0
64,9,0
1444,16,0
324,144,0
9,256,0
784,144,0
1225,144,0
0,225,0
49,196,0
625,81,0
256,121,0
576,225,0
196,121,0
529,16,0
196,25,0
64,100,0
100,81,0
1225,81,0
196,169,0
16,169,0
400,64,0
1225,64,0
9,196,0
1,169,0
1849,25,0
3025,25,0
144,121,0
0,144,0
441,144,0
4,289,0
1444,289,0
121,121,0
841,49,0
49,121,0
400,169,0
64,81,0
1089,81,0
64,196,0
9,121,0
529,25,0
900,49,0
1,144,0
0,100,0
729,49,0
625,100,0
16,196,0
289,100,0
1764,64,0
900,121,0
81,121,0
361,36,0
576,64,0
4,225,0
121,196,0
225,81,0
225,100,0
484,169,0
400,81,0
324,36,0
441,121,0
9,225,0
9,100,0
784,64,0
256,196,0
4,169,0
676,49,0
1600,36,0
64,169,0
36,196,0
625,25,0
1521,25,0
16,144,0
16,169,0
289,100,0
9,225,0
841,324,0
81,144,0
729,49,0
121,144,0
225,256,0
25,121,0
841,81,0
81,144,0
16,100,0
361,25,0
729,49,0
4,196,0
9,144,0
1764,25,0
2304,25,0
225,100,0
121,81,0
1156,36,0
676,81,0
9,144,0
144,100,0
361,144,0
144,324,0
576,256,0
49,121,0
324,121,0
100,225,0
144,121,0
361,49,0
441,121,0
1,169,0
25,25,0
784,1,0
289,121,0
4,225,0
576,81,0
1600,36,0
144,196,0
36,256,0
289,100,0
729,144,0
1,289,0
25,121,0
289,4,0
4,36,0
784,196,0
64,169,0
841,121,0
529,256,0
9,256,0
196,64,0
676,49,0
49,144,0
16,121,0
361,25,0
900,49,0
36,169,0
16,121,0
1681,16,0
2116,16,0
121,121,0
36,144,0
361,169,0
9,361,0
784,400,0
1,144,0
576,49,0
4,121,0
144,100,0
256,16,0
900,36,0
25,169,0
0,121,0
576,36,0
484,100,0
1,225,0
49,100,0
961,49,0
324,121,0
1,169,0
361,64,0
1156,64,0
144,225,0
0,169,0
361,64,0
400,100,0
81,256,0
49,196,0
676,64,0
484,121,0
49,196,0
4,64,0
841,49,0
225,121,0
49,144,0
121,49,0
729,49,0
1,121,0
36,121,0
1369,36,0
2116,25,0
0,121,0
81,144,0
1156,64,0
1444,64,0
0,144,0
4,169,0
400,144,0
225,225,0
1849,256,0
4,196,0
784,121,0
4,169,0
196,144,0
441,100,0
676,100,0
25,169,0
0,121,0
1024,49,0
400,64,0
25,144,0
225,121,0
1936,49,0
841,36,0
81,81,0
676,49,0
900,16,0
1,36,0
9,121,0
625,121,0
400,169,0
225,256,0
144,225,0
441,81,0
225,121,0
49,225,0
0,121,0
324,4,0
25,16,0
1,144,0
900,144,0
1849,81,0
196,169,0
4,196,0
841,49,0
1225,25,0
4,169,0
1,289,0
256,144,0
25,100,0
1089,225,0
81,225,0
625,100,0
64,169,0
169,361,0
64,225,0
676,64,0
49,100,0
1,169,0
676,81,0
841,64,0
9,144,0
36,121,0
961,25,0
676,16,0
25,100,0
289,100,0
1444,16,0
625,9,0
36,64,0
324,100,0
361,64,0
81,196,0
289,289,0
196,169,0
400,100,0
64,169,0
25,144,0
676,81,0
576,121,0
0,225,0
256,144,0
1444,64,0
225,121,0
36,169,0
484,64,0
1600,16,0
64,81,0
64,121,0
289,64,0
196,121,0
361,225,0
169,196,0
441,100,0
64,121,0
900,196,0
100,121,0
1024,49,0
484,100,0
1,100,0
289,49,0
841,49,0
1,169,0
100,169,0
400,64,0
900,64,0
1,169,0
4,144,0
1936,25,0
2500,25,0
144,144,0
64,144,0
1156,81,0
676,64,0
0,121,0
81,121,0
361,121,0
169,196,0
841,100,0
25,36,0
441,100,0
100,256,0
196,256,0
441,121,0
625,144,0
1,144,0
49,64,0
1024,16,0
324,81,0
1,196,0
289,100,0
1369,64,0
225,121,0
4,169,0
576,100,0
676,121,0
36,256,0
49,169,0
576,64,0
361,100,0
576,36,0
100,225,0
4,121,0
169,81,0
81,144,0
36,81,0
729,49,0
64,144,0
0,169,0
1089,36,0
2116,25,0
100,196,0
9,289,0
900,121,0
1089,36,0
9,64,0
100,36,0
100,25,0
16,225,0
676,529,0
0,324,0
676,121,0
4,121,0
256,169,0
169,64,0
900,81,0
36,225,0
0,196,0
576,81,0
625,81,0
9,169,0
100,81,0
1089,9,0
441,49,0
4,144,0
324,81,0
1296,16,0
361,36,0
25,36,0
484,25,0
576,49,0
9,196,0
36,196,0
361,121,0
289,169,0
100,256,0
49,144,0
361,64,0
196,144,0
9,225,0
529,81,0
1521,25,0
144,100,0
16,196,0
441,81,0
961,25,0
4,49,0
169,81,0
144,64,0
64,225,0
324,484,0
36,361,0
576,100,0
100,169,0
289,324,0
16,169,0
1024,25,0
324,64,0
4,81,0
484,25,0
841,36,0
25,169,0
1,196,0
361,64,0
484,49,0
0,121,0
81,81,0
1521,9,0
1296,16,0
169,144,0
225,144,0
729,49,0
100,81,0
9,169,0
225,144,0
361,144,0
121,196,0
256,100,0
256,36,0
400,144,0
49,324,0
49,225,0
324,81,0
225,81,0
0,144,0
361,81,0
1369,36,0
196,121,0
1,196,0
289,100,0
529,81,0
0,196,0
4,196,0
529,81,0
289,121,0
169,256,0
16,144,0
625,25,0
256,81,0
16,196,0
49,100,0
625,36,0
64,100,0
36,144,0
169,64,0
625,49,0
9,169,0
1,196,0
1296,49,0
1936,25,0
169,144,0
25,144,0
676,9,0
484,4,0
0,121,0
36,169,0
361,121,0
36,256,0
529,361,0
25,144,0
484,36,0
9,121,0
100,144,0
324,64,0
625,100,0
4,196,0
9,144,0
576,81,0
256,196,0
0,256,0
289,81,0
1369,25,0
289,100,0
0,196,0
169,64,0
256,9,0
36,9,0
25,9,0
484,4,0
289,144,0
400,841,0
324,961,0
625,196,0
1444,1,0
169,9,0
100,49,0
900,1,0
9,25,0
1089,225,0
81,36,0
3844,64,0
2209,2209,0
484,4356,0
1849,1444,1
2500,4,1
961,441,1
6724,676,1
100,361,1
1225,1,1
441,121,1
3721,81,1
15129,676,1
7569,64,1
16,3249,1
729,5776,1
7921,3481,1
2500,81,1
3364,1521,1
10609,2601,1
6400,784,1
12321,144,1
12544,2025,1
49,2025,1
1444,729,1
6084,961,1
2601,1764,1
24649,676,1
52900,0,1
4096,100,1
3721,625,1
0,961,1
625,144,1
196,36,1
3025,256,1
11881,841,1
1936,2025,1
19321,1849,1
169,121,1
4489,324,1
14400,441,1
22500,16,1
3025,64,1
14161,64,1
361,256,1
4900,484,1
41616,400,1
14884,529,1
1764,729,1
1,225,1
4489,49,1
9604,256,1
39204,324,1
256,9,1
7225,0,1
3364,100,1
12100,144,1
1764,36,1
12544,289,1
289,529,1
2916,16,1
5929,49,1
4489,256,1
1764,1089,1
169,400,1
7396,289,1
5776,900,1
30976,576,1
2704,25,1
47524,529,1
2401,225,1
361,81,1
54756,49,1
109561,49,1
5929,900,1
3600,961,1
196,841,1
26569,1849,1
104976,1369,1
19044,1,1
6561,361,1
1225,9,1
21316,441,1
484,25,1
23104,0,1
196,324,1
4356,484,1
9801,196,1
38025,400,1
7921,361,1
4225,0,1
21316,121,1
3249,36,1
6084,729,1
676,256,1
25921,36,1
0,4,1
26569,36,1
1156,1,1
729,4,1
25281,16,1
32400,121,1
1764,361,1
13924,36,1
1,1156,1
9,729,1
13456,169,1
36,484,1
25600,676,1
36,100,1
42849,16,1
3969,576,1
6400,961,1
8281,0,1
30276,256,1
8649,256,1
30625,1444,1
4096,484,1
2209,576,1
56644,1156,1
45369,64,1
6084,400,1
3136,49,1
19600,400,1
2601,676,1
5329,400,1
3969,529,1
24964,225,1
144,196,1
28561,169,1
1936,400,1
1600,625,1
8464,16,1
14641,0,1
1296,144,1
24649,169,1
168100,4,1
148225,9,1
16900,1,1
3249,289,1
13689,484,1
121,1,1
20736,196,1
961,25,1
961,144,1
27556,2025,1
45369,2704,1
1024,841,1
12769,324,1
4356,400,1
12100,64,1
1681,196,1
1089,81,1
11881,36,1
4761,4,1
676,16,1
6561,784,1
18769,1369,1
9025,256,1
50176,16,1
1936,324,1
38809,361,1
9,100,1
144,529,1
51076,1521,1
18496,625,1
30276,36,1
26569,400,1
144,256,1
1369,100,1
14400,16,1
1849,256,1
26244,1156,1
196,484,1
6400,100,1
5041,576,1
3600,361,1
54756,121,1
89401,225,1
2916,49,1
1600,121,1
76729,0,1
54756,4,1
25,196,1
2025,484,1
14641,529,1
16129,529,1
75076,144,1
1764,64,1
9801,49,1
9801,729,1
37249,2601,1
16,1764,1
3136,729,1
9604,225,1
2209,9,1
20736,144,1
8464,9,1
5625,400,1
100,196,1
9216,9,1
3844,100,1
22500,361,1
2025,256,1
11664,225,1
10201,361,1
18225,49,1
8836,196,1
12321,0,1
16129,841,1
20736,361,1
3364,121,1
5329,169,1
2601,4,1
169,9,1
19044,4,1
25,169,1
4225,961,1
47961,361,1
133956,64,1
5184,576,1
10201,676,1
13924,9,1
38025,400,1
3249,1,1
17161,64,1
400,121,1
7056,0,1
85264,361,1
16129,196,1
13924,81,1
100,576,1
22500,1089,1
1225,529,1
20736,484,1
4225,961,1
23409,784,1
2601,289,1
14884,196,1
1089,324,1
729,169,1
16129,0,1
11025,1,1
36,0,1
19321,25,1
97969,49,1
18769,0,1
7396,144,1
225,324,1
225,400,1
31684,900,1
29241,676,1
13225,81,1
24964,1,1
9216,16,1
20449,1,1
2304,4,1
3025,49,1
7569,289,1
100,121,1
24336,16,1
49,9,1
37636,4,1
196,49,1
34969,9,1
100,484,1
12321,784,1
43264,324,1
109561,169,1
36,324,1
9801,81,1
7396,1,1
4489,196,1
131769,1369,1
40401,784,1
13456,81,1
784,36,1
18769,100,1
1444,0,1
36481,64,1
1024,1,1
36481,289,1
16,289,1
5184,64,1
20449,25,1
12544,1,1
66049,25,1
136161,289,1
38416,2116,1
49284,1849,1
128881,324,1
38025,9,1
1764,4,1
1296,16,1
11881,100,1
16384,1225,1
78400,961,1
19881,81,1
2809,169,1
24649,961,1
25921,484,1
49,4,1
4,81,1
16641,784,1
7396,1849,1
2916,729,1
1849,144,1
22801,1024,1
5625,324,1
59536,169,1
196,1089,1
16384,1156,1
1369,49,1
1296,49,1
40401,1444,1
24649,2500,1
18769,1024,1
14884,729,1
9801,900,1
81,9,1
68121,784,1
24025,196,1
2116,400,1
6084,729,1
60516,400,1
7396,324,1
5625,0,1
900,529,1
10609,225,1
289,196,1
225,256,1
47524,144,1
67081,625,1
900,49,1
49,144,1
5184,484,1
29929,1764,1
109561,2116,1
10201,784,1
7569,324,1
6561,484,1
32041,225,1
5476,0,1
17689,0,1
38809,49,1
91809,0,1
1024,169,1
9025,16,1
9,256,1
2304,49,1
34225,81,1
6561,0,1
784,121,1
13456,36,1
32041,16,1
4225,361,1
34969,400,1
2401,100,1
21316,441,1
4761,1369,1
6561,256,1
32400,289,1
61009,361,1
4761,25,1
729,0,1
13924,144,1
100,1444,1
23104,2209,1
289,1296,1
24964,1225,1
64,2601,1
23409,1444,1
6889,100,1
58564,1156,1
576,361,1
29584,49,1
4900,16,1
37249,81,1
784,676,1
441,441,1
1024,16,1
19321,81,1
84100,529,1
8836,144,1
8649,0,1
10000,169,1
76176,576,1
8836,841,1
5329,2209,1
2025,3721,1
2304,2025,1
36481,256,1
52900,36,1
2601,49,1
4356,1,1
50176,361,1
22201,256,1
100,81,1
3844,289,1
17424,784,1
6084,400,1
45369,196,1
400,484,1
8464,169,1
7056,144,1
19600,256,1
1024,81,1
1936,196,1
10816,529,1
1369,1024,1
28900,1936,1
14161,2809,1
1521,1444,1
4624,9,1
44100,256,1
9,169,1
37249,576,1
3481,25,1
63001,0,1
4,361,1
29241,729,1
2116,256,1
11664,225,1
93025,625,1
24964,400,1
11449,100,1
36,361,1
36481,361,1
100,0,1
38809,25,1
2025,121,1
10609,400,1
2601,81,1
27225,196,1
529,2025,1
900,2304,1
16129,484,1
28561,16,1
1681,0,1
9216,64,1
121801,676,1
126736,900,1
10609,361,1
729,64,1
225,361,1
51984,4225,1
108900,4225,1
9025,484,1
1225,1,1
24025,144,1
50176,36,1
121,576,1
3136,1600,1
1225,676,1
2209,169,1
33489,81,1
4096,1,1
14400,49,1
121,36,1
24964,225,1
324,25,1
35344,625,1
81,1089,1
5329,2116,1
16641,2304,1
7744,841,1
51529,289,1
51529,1225,1
5476,2704,1
8281,1225,1
15129,169,1
8100,289,1
3600,256,1
2116,36,1
25921,100,1
4489,576,1
49284,484,1
100,121,1
40000,81,1
1089,256,1
1764,16,1
65536,225,1
163216,169,1
24336,36,1
324,25,1
19321,256,1
5329,576,1
28561,529,1
23104,576,1
1681,144,1
45369,576,1
106276,1600,1
7744,625,1
9216,400,1
676,784,1
7744,729,1
3249,289,1
8649,121,1
289,4,1
625,64,1
32400,36,1
14400,484,1
3600,3721,1
6241,3844,1
4,1369,1
289,1296,1
3025,1444,1
16,100,1
225,729,1
1936,1024,1
1521,625,1
1764,121,1
4225,441,1
961,1521,1
1024,841,1
3136,64,1
729,9,1
289,9,1
144,1,1
0,9,1
729,9,1
729,64,1
729,256,1
2704,64,1
361,4,1
64,36,1
1849,100,1
3025,400,1
1089,2916,1
1089,1156,1
1600,64,1
169,64,2
25,196,2
121,361,2
81,529,2
576,1849,2
841,1936,2
1,4,2
36,784,2
16,196,2
121,169,2
1225,576,2
900,4,2
361,1089,2
1521,3136,2
3025,3364,2
784,2401,2
36,1444,2
361,441,2
144,16,2
484,529,2
400,144,2
144,256,2
81,1225,2
324,1024,2
36,625,2
676,729,2
361,576,2
4,49,2
169,64,2
1089,16,2
144,49,2
1,121,2
729,196,2
1521,144,2
100,100,2
4,169,2
784,625,2
676,1600,2
49,784,2
144,169,2
25,841,2
9,9,2
169,1849,2
144,1936,2
961,625,2
25,225,2
144,81,2
169,16,2
961,169,2
196,1,2
36,49,2
484,4,2
441,9,2
9,676,2
81,784,2
441,9,2
36,841,2
0,1225,2
729,1600,2
1600,900,2
484,0,2
289,2116,2
1156,4624,2
676,2401,2
121,324,2
400,9,2
0,49,2
1,361,2
361,576,2
36,256,2
361,64,2
196,256,2
16,784,2
361,1296,2
1024,1369,2
225,729,2
121,100,2
1521,100,2
1600,529,2
25,169,2
16,36,2
196,441,2
9,576,2
400,1,2
36,361,2
256,625,2
4,1089,2
196,1156,2
81,324,2
784,36,2
144,144,2
100,144,2
961,1600,2
1024,3364,2
121,2809,2
100,169,2
676,729,2
400,961,2
9,100,2
1,25,2
784,169,2
625,324,2
4,36,2
16,361,2
144,576,2
0,81,2
16,1849,2
361,2116,2
676,1369,2
4,1600,2
1,729,2
441,64,2
121,729,2
169,196,2
25,25,2
169,576,2
9,784,2
484,81,2
4,144,2
676,289,2
100,4,2
16,441,2
1156,1,2
2401,400,2
676,100,2
361,3481,2
1521,6561,2
729,7225,2
9,6561,2
9,1849,2
400,144,2
9,1156,2
144,324,2
0,0,2
100,16,2
49,36,2
169,4,2
144,256,2
784,441,2
400,256,2
900,1,2
3249,529,2
2209,1444,2
81,1764,2
16,1024,2
529,64,2
400,49,2
4,100,2
4,121,2
16,36,2
324,16,2
900,1,2
121,576,2
9,576,2
324,4,2
121,400,2
484,324,2
1156,169,2
324,81,2
361,4,2
1089,64,2
441,100,2
4,729,2
121,121,2
484,100,2
4,1,2
64,256,2
49,324,2
36,81,2
144,256,2
0,2304,2
841,4489,2
400,3481,2
4,784,2
289,36,2
2304,0,2
1444,484,2
196,841,2
196,841,2
196,484,2
36,441,2
49,1296,2
361,1764,2
484,1521,2
4,729,2
4,16,2
841,1089,2
1444,784,2
361,49,2
400,25,2
1156,676,2
324,4356,2
16,6400,2
9,2116,2
289,25,2
1,25,2
144,0,2
4,25,2
9,0,2
289,441,2
64,1089,2
324,625,2
169,441,2
49,841,2
25,900,2
961,324,2
625,16,2
169,400,2
729,81,2
1296,400,2
196,2209,2
9,2116,2
729,36,2
676,1444,2
169,1600,2
676,441,2
1,529,2
196,2704,2
100,3969,2
484,625,2
1156,9,2
225,324,2
16,2116,2
81,625,2
625,441,2
81,676,2
0,36,2
676,900,2
1369,1296,2
81,1849,2
0,2116,2
256,144,2
121,441,2
100,36,2
9,324,2
144,484,2
36,900,2
256,2601,2
484,3249,2
2025,1521,2
196,961,2
121,289,2
16,121,2
169,841,2
16,729,2
4,361,2
441,225,2
400,25,2
0,225,2
81,441,2
1296,324,2
1156,529,2
289,961,2
676,1089,2
1296,144,2
324,64,2
64,4,2
400,676,2
256,900,2
64,576,2
64,289,2
169,25,2
64,9,2
121,121,2
16,400,2
324,144,2
121,49,2
1,841,2
576,1681,2
1521,1156,2
289,676,2
0,324,2
225,25,2
484,529,2
25,169,2
1,361,2
121,81,2
1,0,2
625,9,2
169,49,2
256,81,2
25,4,2
256,16,2
9,4,2
576,676,2
64,2116,2
4,2025,2
576,784,2
900,121,2
144,0,2
121,121,2
961,289,2
729,81,2
9,100,2
49,625,2
784,484,2
484,49,2
16,2116,2
196,4900,2
484,5041,2
1,2500,2
100,400,2
400,225,2
1089,676,2
121,784,2
25,441,2
529,100,2
441,36,2
9,400,2
169,841,2
900,484,2
225,196,2
9,196,2
121,0,2
576,169,2
16,1,2
81,64,2
36,169,2
81,16,2
81,144,2
0,0,2
676,144,2
324,64,2
81,0,2
1,0,2
784,16,2
256,64,2
9,25,2
49,64,2
361,225,2
36,36,2
1,4,2
225,100,2
484,289,2
81,576,2
36,625,2
1444,121,2
1681,121,2
256,576,2
196,961,2
961,676,2
576,400,2
36,484,2
100,256,2
225,81,2
81,256,2
576,289,2
25,49,2
16,9,2
100,81,2
36,196,2
529,169,2
676,169,2
64,484,2
169,676,2
529,25,2
16,361,2
144,1369,2
16,1764,2
625,196,2
289,1369,2
196,3844,2
961,1225,2
576,9,2
16,289,2
1,4,2
784,225,2
625,400,2
0,324,2
9,36,2
529,16,2
121,9,2
100,441,2
9,576,2
169,361,2
64,289,2
1369,256,2
36,196,2
841,36,2
196,2025,2
64,2809,2
1024,1156,2
1225,484,2
49,625,2
1,484,2
100,289,2
1,225,2
36,196,2
196,9,2
484,225,2
1,4,2
289,16,2
25,121,2
400,400,2
4,784,2
0,1225,2
529,961,2
576,361,2
16,169,2
100,9,2
841,16,2
289,100,2
1,400,2
361,576,2
1156,196,2
256,1,2
16,0,2
361,1,2
400,36,2
16,400,2
36,484,2
225,169,2
196,289,2
64,289,2
9,36,2
576,225,2
676,900,2
196,361,2
625,1,2
1024,16,2
49,49,2
16,121,2
484,1,2
1296,64,2
64,1,2
49,64,2
9,1225,2
784,100,2
49,1936,2
81,900,2
361,1156,2
36,1369,2
196,3481,2
64,3969,2
961,2209,2
361,1225,2
81,529,2
484,49,2
484,4,2
0,25,2
4,100,2
361,100,2
484,169,2
81,3969,2
400,7396,2
1600,2304,2
961,0,2
121,225,2
400,324,2
1024,1225,2
256,1296,2
4,49,2
196,81,2
225,9,2
121,256,2
225,1936,2
100,2304,2
196,1225,2
25,576,2
4,225,2
361,121,2
289,169,2
25,289,2
441,100,2
1225,9,2
324,100,2
64,841,2
400,900,2
121,100,2
256,144,2
196,961,2
64,1089,2
1,25,2
529,2304,2
49,2116,2
729,361,2
729,0,2
81,16,2
196,169,2
784,289,2
256,49,2
49,729,2
400,256,2
625,1,2
36,100,2
9,100,2
841,4,2
1225,196,2
64,784,2
0,361,2
400,49,2
576,289,2
121,784,2
256,961,2
324,1156,2
81,1024,2
441,196,2
36,169,2
529,484,2
4,81,2
49,36,2
144,100,2
289,9,2
1,9,2
9,36,2
289,36,2
121,400,2
9,2025,2
361,1936,2
1156,400,2
196,144,2
4,484,2
400,529,2
625,81,2
4,25,2
0,169,2
484,4,2
4,100,2
324,484,2
64,121,2
576,25,2
324,729,2
0,3025,2
100,2704,2
676,841,2
100,1,2
36,784,2
1156,1296,2
1369,324,2
0,1,2
81,64,2
361,49,2
484,0,2
4,36,2
9,225,2
576,256,2
25,484,2
256,676,2
25,144,2
576,25,2
1,196,2
361,9,2
49,900,2
529,1764,2
16,1936,2
0,1764,2
529,1089,2
529,529,2
1,400,2
81,625,2
1089,1089,2
729,1369,2
81,900,2
324,400,2
961,121,2
324,64,2
81,81,2
400,0,2
144,25,2
225,4,2
225,36,2
144,144,2
144,1369,2
4,900,2
25,100,2
529,49,2
196,441,2
0,529,2
196,676,2
784,400,2
81,1,2
1,324,2
1024,256,2
1681,196,2
36,2025,2
49,2209,2
64,400,2
0,81,2
576,324,2
49,324,2
625,196,2
196,25,2
169,225,2
9,9,2
784,225,2
361,64,2
169,1296,2
841,2116,2
784,1444,2
9,529,2
1,400,2
841,784,2
900,625,2
16,121,2
25,16,2
729,9,2
625,0,2
81,4,2
400,81,2
1024,289,2
81,676,2
49,729,2
16,289,2
64,36,2
121,4,2
169,121,2
144,36,2
361,441,2
1,2209,2
25,2025,2
625,729,2
361,256,2
4,121,2
144,4,2
676,4,2
196,16,2
81,9,2
841,49,2
1225,36,2
36,900,2
25,900,2
49,100,2
9,1,2
169,0,2
1,4,2
625,4,2
169,25,2
169,36,2
0,0,2
576,0,2
225,36,2
25,196,2
196,121,2
256,49,2
0,324,2
25,676,2
1444,256,2
1600,121,2
49,529,2
0,625,2
484,36,2
400,1,2
4,64,2
196,36,2
900,484,2
16,1600,2
289,256,2
16,441,2
361,1764,2
16,2601,2
169,1600,2
144,225,2
400,4,2
0,36,2
16,9,2
676,196,2
256,169,2
4,64,2
196,144,2
1296,900,2
361,2209,2
9,1225,2
484,0,2
1089,441,2
144,4,2
25,529,2
576,289,2
256,36,2
289,169,2
196,625,2
196,1024,2
144,361,2
36,16,2
16,100,2
441,64,2
64,1,2
16,49,2
289,169,2
784,81,2
49,9,2
1,225,2
841,196,2
1521,9,2
144,576,2
16,900,2
361,676,2
4,625,2
529,529,2
25,256,2
441,144,2
64,289,2
36,529,2
256,289,2
961,121,2
121,225,2
9,256,2
529,144,2
529,100,2
0,225,2
4,169,2
484,16,2
289,1,2
1,16,2
256,16,2
1225,1,2
625,0,2
144,25,0
441,36,0
529,49,0
4,144,0
1,289,0
256,225,0
144,256,0
121,484,0
49,484,0
225,289,0
81,256,0
100,225,0
0,36,0
400,4,0
100,1,0
9,4,0
841,1,0
1936,0,0
324,81,0
9,256,0
576,196,0
841,64,0
1,49,0
49,121,0
144,196,0
4,400,0
361,625,0
9,361,0
529,49,0
81,36,0
81,144,0
121,64,0
841,9,0
169,49,0
16,100,0
441,36,0
625,100,0
49,529,0
196,676,0
1936,169,0
1849,64,0
169,196,0
36,256,0
441,64,0
196,16,0
0,64,0
100,25,0
256,4,0
64,49,0
324,169,0
25,100,0
144,169,0
100,400,0
100,324,0
196,64,0
225,81,0
1,289,0
225,400,0
1156,324,0
324,289,0
4,225,0
400,25,0
1225,16,0
196,1,0
1,1,0
196,9,0
196,9,0
25,36,0
4,144,0
676,169,0
169,400,0
289,784,0
64,484,0
324,121,0
121,100,0
9,144,0
49,49,0
324,9,0
9,64,0
1,100,0
529,25,0
961,16,0
121,81,0
121,81,0
1600,1,0
1764,4,0
169,121,0
49,196,0
576,81,0
289,121,0
1,400,0
49,400,0
196,256,0
121,361,0
676,484,0
1,64,0
400,36,0
64,0,0
196,121,0
1024,121,0
324,81,0
49,144,0
4,196,0
361,225,0
100,361,0
1,529,0
324,289,0
900,64,0
144,64,0
25,144,0
484,100,0
441,36,0
4,64,0
1,49,0
441,16,0
256,49,0
9,289,0
16,289,0
529,121,0
144,144,0
4,225,0
64,121,0
400,49,0
9,100,0
0,196,0
784,121,0
1521,64,0
144,121,0
9,100,0
676,4,0
900,4,0
25,225,0
9,400,0
225,289,0
16,361,0
484,484,0
1,144,0
529,4,0
4,36,0
169,169,0
100,100,0
441,64,0
4,144,0
25,100,0
841,4,0
729,0,0
36,81,0
196,121,0
1296,4,0
841,0,0
64,36,0
144,81,0
400,49,0
25,81,0
0,196,0
361,169,0
324,121,0
169,196,0
196,169,0
256,36,0
196,49,0
81,196,0
0,400,0
729,289,0
256,256,0
0,225,0
576,100,0
1600,25,0
121,81,0
9,121,0
529,49,0
841,9,0
4,36,0
25,144,0
441,225,0
100,361,0
400,400,0
9,144,0
729,16,0
81,81,0
256,289,0
64,225,0
900,64,0
121,81,0
4,121,0
441,81,0
625,100,0
1,225,0
1,196,0
625,16,0
529,4,0
16,81,0
225,64,0
1521,0,0
961,0,0
100,121,0
256,196,0
484,81,0
0,64,0
64,144,0
121,144,0
196,121,0
81,324,0
81,441,0
256,169,0
256,81,0
9,169,0
36,121,0
841,25,0
441,64,0
9,196,0
324,169,0
1024,81,0
64,144,0
4,100,0
256,4,0
225,9,0
64,81,0
25,289,0
324,196,0
64,144,0
324,144,0
4,49,0
784,16,0
361,121,0
0,256,0
169,196,0
625,225,0
49,324,0
0,324,0
529,169,0
841,121,0
1,289,0
0,289,0
1296,100,0
1764,49,0
64,169,0
25,169,0
961,36,0
676,9,0
0,25,0
49,4,0
400,4,0
100,169,0
784,361,0
1,196,0
324,169,0
49,400,0
144,441,0
289,144,0
484,64,0
1,121,0
81,64,0
1089,1,0
484,49,0
4,1,0
400,36,0
1444,64,0
169,169,0
100,256,0
81,196,0
441,144,0
9,196,0
4,225,0
484,100,0
100,121,0
256,256,0
16,256,0
625,144,0
361,196,0
1,289,0
121,121,0
729,16,0
196,49,0
49,100,0
961,25,0
1369,1,0
81,81,0
4,225,0
784,64,0
900,49,0
0,225,0
36,169,0
100,25,0
1,81,0
484,441,0
1,324,0
400,100,0
16,225,0
100,576,0
225,400,0
900,100,0
100,64,0
9,16,0
484,0,0
441,4,0
4,144,0
64,225,0
961,169,0
576,225,0
36,324,0
289,100,0
961,0,0
256,1,0
25,16,0
324,36,0
361,64,0
4,121,0
36,100,0
225,9,0
225,25,0
100,169,0
64,121,0
289,4,0
225,25,0
4,225,0
361,256,0
1156,196,0
196,256,0
0,324,0
400,169,0
900,81,0
25,169,0
9,196,0
225,64,0
100,49,0
196,225,0
9,289,0
484,169,0
81,196,0
225,361,0
0,196,0
625,49,0
196,9,0
9,16,0
361,49,0
676,1,0
25,225,0
1,400,0
400,225,0
625,225,0
25,441,0
81,289,0
1296,16,0
1156,4,0
121,144,0
121,225,0
484,81,0
121,100,0
0,256,0
169,196,0
324,121,0
25,324,0
121,361,0
169,100,0
196,36,0
64,121,0
49,81,0
256,4,0
196,16,0
0,121,0
196,100,0
1089,64,0
289,225,0
9,324,0
400,81,0
1024,16,0
49,36,0
25,36,0
144,1,0
100,1,0
81,100,0
0,144,0
576,49,0
256,81,0
1,225,0
81,196,0
676,81,0
144,144,0
1,196,0
144,100,0
441,100,0
9,289,0
4,361,0
1024,169,0
1444,121,0
49,225,0
4,169,0
784,16,0
900,1,0
64,100,0
100,100,0
324,16,0
9,121,0
400,484,0
4,361,0
324,100,0
25,81,0
225,16,0
121,36,0
529,1,0
25,256,0
25,400,0
576,169,0
361,144,0
4,324,0
196,289,0
1024,121,0
361,196,0
16,289,0
256,144,0
529,36,0
25,81,0
4,144,0
529,81,0
361,64,0
49,169,0
16,196,0
361,64,0
81,25,0
121,49,0
4,49,0
729,36,0
361,121,0
4,256,0
196,100,0
625,49,0
81,121,0
16,169,0
841,36,0
1225,25,0
49,196,0
4,289,0
324,144,0
9,169,0
324,400,0
1,289,0
676,81,0
64,121,0
144,289,0
81,144,0
784,25,0
121,64,0
9,100,0
484,16,0
625,25,0
9,144,0
9,196,0
484,64,0
361,49,0
4,196,0
169,169,0
1225,16,0
625,9,0
81,64,0
400,64,0
576,16,0
4,36,0
25,100,0
169,81,0
144,121,0
100,256,0
64,225,0
256,81,0
196,100,0
16,324,0
16,225,0
400,81,0
25,144,0
4,289,0
625,144,0
1681,64,0
289,169,0
16,169,0
729,25,0
841,1,0
9,64,0
81,144,0
169,81,0
16,196,0
361,441,0
16,225,0
676,49,0
441,81,0
64,121,0
256,25,0
400,9,0
0,121,0
49,196,0
169,64,0
529,36,0
4,144,0
1,169,0
961,49,0
1444,49,0
196,196,0
144,225,0
676,64,0
256,64,0
0,169,0
100,144,0
256,49,0
64,121,0
169,225,0
361,144,0
841,144,0
0,400,0
64,400,0
196,121,0
196,81,0
4,289,0
36,256,0
576,9,0
169,121,0
4,121,0
529,1,0
1156,36,0
81,400,0
0,1024,0
441,441,0
400,25,0
25,49,0
36,169,0
144,36,0
1,9,0
441,100,2
64,144,2
3136,36,2
2209,9,2
225,9,2
225,25,2
361,100,2
16,25,2
361,9,2
9,0,2
289,144,2
36,1225,2
100,2116,2
1225,1089,2
1089,144,2
25,9,2
9,0,2
144,324,2
144,676,2
784,625,2
0,400,2
484,144,2
4,100,2
121,36,2
169,16,2
900,121,2
256,0,2
289,841,2
1089,2209,2
625,1764,2
36,1089,2
256,529,2
900,144,2
81,25,2
49,9,2
169,9,2
1089,1156,2
576,2116,2
324,576,2
1024,0,2
576,16,2
36,81,2
25,196,2
441,49,2
289,36,2
144,256,2
144,676,2
64,1024,2
0,1764,2
225,2500,2
1,2704,2
144,2025,2
0,144,2
9,289,2
1296,1764,2
2209,5776,2
289,4761,2
49,1849,2
961,961,2
1156,441,2
169,625,2
256,1681,2
625,1444,2
1,900,2
625,1296,2
0,1521,2
676,144,2
144,324,2
0,361,2
169,4,2
121,484,2
169,1225,2
100,676,2
324,484,2
441,484,2
4,121,2
100,4,2
841,9,2
324,36,2
0,256,2
81,81,2
324,25,2
25,256,2
9,1369,2
625,2401,2
676,1296,2
4,841,2
100,676,2
100,81,2
100,9,2
64,9,2
0,121,2
529,196,2
289,1,2
25,100,2
625,441,2
1681,441,2
400,256,2
100,36,2
1024,1,2
1369,0,2
64,256,2
1,1444,2
144,1089,2
0,36,2
529,25,2
81,1,2
225,25,2
16,361,2
529,49,2
9,900,2
900,1521,2
256,256,2
64,64,2
784,144,2
1024,9,2
100,4,2
81,49,2
900,25,2
900,64,2
49,1,2
100,25,2
1156,576,2
900,900,2
64,1,2
100,196,2
225,4,2
100,100,2
529,100,2
4,36,2
289,64,2
4,289,2
16,529,2
484,784,2
625,2209,2
25,3844,2
100,2401,2
729,441,2
169,49,2
1,576,2
361,676,2
1681,81,2
576,64,2
64,144,2
484,289,2
441,784,2
49,529,2
169,0,2
25,729,2
16,961,2
676,49,2
36,484,2
729,0,2
576,1,2
64,400,2
400,256,2
1089,25,2
225,441,2
1,196,2
100,169,2
169,2304,2
9,3844,2
4,2209,2
841,1156,2
1444,1225,2
121,1936,2
100,1089,2
529,49,2
9,25,2
289,100,2
9,25,2
625,324,2
36,1521,2
81,1521,2
100,121,2
529,441,2
64,529,2
9,625,2
400,1369,2
225,400,2
49,100,2
9,1600,2
729,4225,2
225,6241,2
0,3721,2
225,64,2
961,1764,2
441,2704,2
256,400,2
900,121,2
676,625,2
1,576,2
0,16,2
361,144,2
256,64,2
49,324,2
9,676,2
400,64,2
256,529,2
0,225,2
49,441,2
361,100,2
36,784,2
16,3136,2
961,3721,2
1444,3136,2
49,2209,2
36,1681,2
256,576,2
400,36,2
16,144,2
36,64,2
64,841,2
16,2209,2
484,2500,2
0,1089,2
484,289,2
25,16,2
16,625,2
324,1296,2
784,1024,2
25,144,2
0,1,2
225,4,2
64,100,2
121,625,2
49,289,2
1681,4,2
1089,121,2
100,1156,2
625,1296,2
1936,529,2
784,361,2
196,784,2
841,961,2
625,784,2
196,529,2
625,36,2
49,81,2
324,324,2
16,225,2
9,144,2
1024,81,2
625,4,2
64,0,2
484,256,2
900,1764,2
64,1681,2
1,961,2
676,576,2
1024,9,2
1,784,2
49,1296,2
169,784,2
1,676,2
784,1024,2
144,900,2
441,1764,2
121,4356,2
144,4225,2
49,2809,2
1089,2209,2
441,1936,2
225,2304,2
676,1296,2
256,0,2
225,729,2
144,1089,2
400,576,2
676,1,2
16,484,2
81,1444,2
1225,1521,2
900,1089,2
81,900,2
169,324,2
484,196,2
49,1225,2
4,529,2
625,36,2
676,81,2
36,400,2
169,1369,2
196,1681,2
324,49,2
0,841,2
36,841,2
441,121,2
25,16,2
81,100,2
100,1521,2
729,625,2
36,484,2
16,3025,2
324,4225,2
676,2916,2
9,1764,2
25,1225,2
625,625,2
169,625,2
169,169,2
1,289,2
576,576,2
144,144,2
36,16,2
36,196,2
484,324,2
100,625,2
25,961,2
625,576,2
841,64,2
25,49,2
36,441,2
1521,784,2
1764,484,2
64,256,2
1,400,2
484,484,2
169,64,2
36,81,2
64,36,2
676,784,2
9,3025,2
225,1764,2
16,256,2
225,121,2
144,9,2
324,576,2
256,1156,2
729,169,2
25,25,2
100,9,2
900,169,2
289,441,2
0,16,2
324,1444,2
1521,1936,2
289,1444,2
4,1089,2
441,841,2
484,289,2
9,1,2
4,361,2
729,324,2
324,64,2
324,441,2
169,1,2
441,324,2
441,64,2
1,625,2
36,1521,2
529,1024,2
100,1024,2
9,256,2
1156,169,2
1936,784,2
64,324,2
36,9,2
625,25,2
1089,169,2
9,400,2
121,256,2
169,196,2
0,576,2
361,3136,2
121,6241,2
1681,4096,2
144,1156,2
289,9,2
25,225,2
841,361,2
49,625,2
64,1296,2
81,2209,2
289,2601,2
9,784,2
81,324,2
841,2116,2
361,2304,2
0,1681,2
225,1296,2
1600,1444,2
784,1849,2
64,1521,2
144,441,2
225,16,2
25,25,2
144,1,2
169,441,2
400,4,2
4,196,2
25,144,2
196,2401,2
144,3721,2
16,529,2
81,1600,2
961,5184,2
324,4624,2
49,4489,2
841,4225,2
1600,1521,2
144,100,2
0,4,2
324,49,2
225,121,2
81,1024,2
16,400,2
484,16,2
121,9,2
441,144,2
196,1156,2
144,1024,2
169,36,2
9,0,2
289,625,2
900,484,2
196,81,2
9,841,2
441,1156,2
676,1444,2
49,1764,2
81,1225,2
1156,361,2
1024,169,2
100,484,2
256,576,2
1156,169,2
484,121,2
16,256,2
144,400,2
121,361,2
256,361,2
400,225,2
64,16,2
100,100,2
256,441,2
169,484,2
324,1,2
576,1444,2
196,3721,2
784,2704,2
1600,625,2
361,25,2
25,100,2
576,256,2
1156,1,2
64,81,2
16,81,2
100,1089,2
36,1024,2
289,289,2
121,289,2
64,324,2
0,64,2
256,1156,2
16,529,2
1156,81,2
576,729,2
25,2809,2
196,3025,2
529,1225,2
36,1,2
1,529,2
841,676,2
1521,289,2
121,25,2
16,169,2
729,576,2
784,625,2
64,1600,2
121,2116,2
400,676,2
9,400,2
361,900,2
25,676,2
484,144,2
1,196,2
169,729,2
64,729,2
256,441,2
1,256,2
1,1,2
529,144,2
441,324,2
9,625,2
144,961,2
900,484,2
484,25,2
100,961,2
400,1369,2
900,1296,2
196,1225,2
49,1296,2
576,784,2
289,361,2
576,169,2
1369,4,2
25,0,2
625,4,2
25,9,2
1,144,2
1681,81,2
1369,0,1
25,36,1
289,225,1
2704,16,1
2401,1156,1
900,2916,1
900,2209,1
100,25,1
484,441,1
49,529,1
25,289,1
1296,9,1
6241,16,1
5184,196,1
900,1156,1
81,0,1
1156,2916,1
5476,4356,1
7396,2209,1
576,576,1
1936,529,1
1225,1156,1
1521,1936,1
3600,3136,1
1849,2601,1
5329,676,1
10609,121,1
13456,729,1
14641,1024,1
9801,49,1
1156,100,1
5929,169,1
10609,324,1
25,169,1
6241,9,1
10816,49,1
10609,1,1
2704,16,1
3844,400,1
14641,1024,1
3481,81,1
169,256,1
361,1,1
5184,289,1
1369,49,1
1225,25,1
7225,225,1
1089,36,1
3844,36,1
3025,1,1
400,64,1
1156,1,1
4,4,1
1681,0,1
8281,81,1
2209,441,1
100,900,1
576,961,1
4225,49,1
16129,676,1
6889,2401,1
100,3364,1
100,961,1
841,0,1
841,484,1
144,2116,1
676,1521,1
2704,900,1
1849,625,1
1296,484,1
4489,9,1
2401,289,1
3364,49,1
12100,36,1
2500,841,1
1296,576,1
6889,484,1
4356,3249,1
81,2704,1
25,1936,1
361,2401,1
6724,784,1
15876,4,1
7056,64,1
1600,625,1
4761,484,1
6084,289,1
441,784,1
16,1024,1
4225,144,1
6561,289,1
729,1444,1
1089,576,1
4356,9,1
16,25,1
1369,1,1
1936,36,1
5625,64,1
1024,841,1
9216,16,1
2304,1681,1
2809,1296,1
16129,0,1
9216,9,1
16,361,1
441,676,1
8281,121,1
729,121,1
3721,484,1
2601,576,1
2116,676,1
7056,1089,1
5625,361,1
1225,25,1
6241,9,1
34225,1156,1
28561,529,1
0,289,1
6724,169,1
9,400,1
1225,441,1
2304,0,1
1089,4,1
121,121,1
9409,49,1
28561,25,1
2401,1,1
2601,49,1
4,9,1
81,25,1
2809,64,1
784,49,1
1444,256,1
81,169,1
1764,1849,1
1024,900,1
12321,16,1
529,196,1
32041,841,1
12544,144,1
16,289,1
3249,324,1
9604,0,1
196,169,1
3249,1296,1
3249,3364,1
11664,2025,1
1225,49,1
169,49,1
1,0,1
9,64,1
225,144,1
1444,144,1
4356,676,1
441,16,1
1936,4,1
7569,1225,1
21609,3481,1
196,676,1
5041,1,1
225,225,1
2916,441,1
2601,1,1
8464,1,1
361,676,1
784,25,1
9216,961,1
324,196,1
7744,400,1
361,361,1
3600,16,1
576,144,1
13924,441,1
5041,100,1
1296,1,1
2704,64,1
196,441,1
7744,484,1
144,256,1
12769,3600,1
7225,3600,1
1444,1369,1
324,900,1
10404,484,1
8100,9,1
1,16,1
9,1089,1
676,1521,1
19600,4,1
13924,324,1
4761,81,1
16129,144,1
0,529,1
4624,784,1
900,81,1
576,529,1
1764,324,1
1369,841,1
11881,225,1
2025,121,1
0,16,1
4096,2304,1
9216,3481,1
9,361,1
961,25,1
2116,64,1
1600,0,1
1089,961,1
0,289,1
7056,529,1
2116,576,1
3249,1,1
1600,9,1
784,144,1
0,4,1
2704,1,1
1600,289,1
1024,400,1
3364,256,1
121,676,1
5776,841,1
1296,81,1
4900,25,1
400,324,1
21316,3136,1
28561,2304,1
2401,144,1
784,64,1
6084,784,1
100,841,1
8100,196,1
2116,25,1
361,169,1
841,1444,1
2500,1444,1
900,25,1
2500,121,1
841,4,1
324,1,1
6889,225,1
6724,225,1
2401,9,1
10609,100,1
961,400,1
49,36,1
196,64,1
11664,1296,1
12769,1089,1
169,9,1
196,1,1
3721,625,1
3364,729,1
2304,4,1
1681,25,1
4489,256,1
3721,484,1
729,36,1
784,16,1
9,196,1
3844,81,1
8100,9,1
625,64,1
8836,169,1
729,225,1
49,961,1
5329,3249,1
1156,2116,1
8649,0,1
5625,256,1
7225,64,1
20736,289,1
3844,1,1
676,100,1
841,100,1
2025,841,1
12100,1369,1
3364,4,1
64,841,1
484,676,1
576,121,1
6241,81,1
9801,49,1
676,4,1
8464,196,1
1444,1764,1
3364,625,1
17161,81,1
1521,16,1
9025,2209,1
6400,2916,1
3364,1156,1
12321,729,1
13456,361,1
4096,49,1
3136,36,1
9216,400,1
2916,324,1
7744,25,1
18769,121,1
3249,196,1
4,1,1
529,81,1
3969,25,1
4489,324,1
36,49,1
169,49,1
5184,25,1
21609,25,1
7225,144,1
0,361,1
841,1089,1
4489,961,1
121,484,1
36,676,1
6724,324,1
3136,9,1
4356,289,1
5329,484,1
36,256,1
841,16,1
11025,196,1
1936,16,1
2601,4,1
3364,121,1
961,400,1
16,400,1
2401,144,1
5929,81,1
324,49,1
2601,4,1
289,0,1
1681,324,1
196,1156,1
12100,361,1
5041,1,1
1089,16,1
2601,324,1
2401,144,1
4225,4,1
1156,4,1
576,25,1
1296,36,1
1369,16,1
3600,169,1
1089,400,1
4900,324,1
784,1089,1
1225,2704,1
2209,1225,1
0,4,1
100,25,1
6724,81,1
21609,169,1
7056,9,1
1024,4,1
7921,400,1
14884,484,1
2401,64,1
121,676,1
729,2209,1
2304,529,1
22201,1,1
10816,0,1
100,1,1
900,196,1
4356,49,1
81,81,1
6724,25,1
1521,121,1
36,25,1
529,225,1
1225,289,1
324,169,1
225,961,1
3844,1849,1
3249,900,1
1849,625,1
4761,961,1
1,144,1
361,324,1
484,144,1
25,225,1
2209,625,1
1156,441,1
16,529,1
529,225,1
4761,36,1
1936,36,1
225,121,1
841,64,1
900,64,1
1225,49,1
4356,25,1
2809,100,1
1369,169,1
5329,484,1
16,256,1
1521,0,1
0,0,1
784,289,1
289,729,1
4761,324,1
4225,400,1
2025,361,1
1369,16,1
0,361,1
2025,64,1
784,100,1
576,361,1
1156,196,1
16,16,1
9,4,1
81,225,1
169,361,1
361,400,1
1369,784,1
5041,841,1
784,625,1
1024,484,1
1764,529,1
1444,625,1
5625,1369,1
6724,3249,1
4096,1225,1
11664,441,1
13689,1849,1
49,144,1
12321,25,1
3844,16,1
49,1,1
3136,576,1
5184,400,1
784,9,1
4489,100,1
18496,64,1
8464,121,1
144,4,1
784,625,1
1600,900,1
5929,529,1
4624,576,1
6084,121,1
8836,169,1
100,841,1
12321,784,1
11236,225,1
1089,16,1
49,49,1
256,361,1
1225,529,1
2116,529,1
1,1024,1
1024,1296,1
25,484,1
1296,169,1
1296,324,1
2209,196,1
2209,9,1
0,0,1
841,0,1
64,4,1
1600,25,1
225,4,1
169,16,1
2809,36,1
2116,4,1
4,841,1
441,1225,1
841,256,1
4761,81,1
8100,484,1
1444,900,1
196,484,1
1,324,1
36,256,1
3136,81,1
5041,225,1
289,1296,1
3136,1521,1
529,484,1
7225,361,1
3025,841,1
1444,484,1
6724,16,1
7056,81,1
49,100,1
1849,4,1
529,784,1
144,400,1
64,121,1
900,361,1
1600,484,1
4,1764,1
324,2601,1
64,729,1
841,25,1
4225,121,1
3364,16,1
4,400,1
784,484,1
324,4,1
1296,16,1
3969,0,1
3364,324,1
2401,1521,1
2916,576,1
1156,121,1
625,529,1
1521,49,1
1089,1,1
6889,81,1
4624,841,1
2809,1521,1
1156,1369,1
625,1849,1
7396,2025,1
4225,441,1
81,9,1
961,9,1
144,64,1
289,81,1
729,16,1
36,144,1
64,144,1
2809,121,1
5476,289,1
2116,121,1
961,676,1
2025,25,1
1024,0,1
324,625,1
1089,729,1
144,64,1
961,64,1
1936,625,1
36,900,1
2025,484,1
16,529,1
2809,289,1
1089,121,1
576,676,1
729,49,1
169,4,1
484,484,1
121,400,1
225,36,1
6561,576,1
18225,1156,1
12100,2809,1
1521,2500,1
100,16,1
625,961,1
9,900,1
1936,729,1
1936,484,1
2916,64,1
6889,2209,1
5184,2304,1
576,484,1
121,324,1
1369,1444,1
3844,1600,1
3481,144,1
1,0,1
3364,9,1
1369,9,1
121,1,1
144,196,1
289,225,1
4624,1,1
5625,1,1
36,1089,1
289,2304,1
16,361,1
2916,121,1
9801,729,1
1521,169,1
4356,49,1
7396,25,1
1764,361,1
100,0,1
289,729,1
1936,576,1
2304,100,1
196,121,1
1225,25,1
2401,676,1
625,1936,1
1225,529,1
8836,16,1
4096,324,1
961,441,1
17161,1,1
28900,36,1
18225,1,1
9604,0,1
4489,64,1
225,1,1
16,256,1
676,324,1
784,676,1
361,2025,1
1225,2209,1
25,676,1
729,441,1
49,1369,1
4,1369,1
100,121,1
441,25,1
81,196,1
1024,1,1
3969,529,1
576,49,1
784,196,1
1,49,1
5929,4,1
10000,144,1
7744,361,1
5184,49,1
144,289,1
6084,2025,1
8464,1444,1
1936,100,1
1156,9,1
729,81,1
100,0,1
1225,25,1
576,256,1
25,729,1
529,25,1
2209,1225,1
4,484,1
2401,225,1
100,484,1
144,16,1
144,1225,1
1,1936,1
1936,49,1
1156,225,1
49,36,1
64,441,1
3136,289,1
841,784,1
676,1156,1
441,256,1
784,16,1
6400,196,1
4900,529,1
400,441,1
4356,900,1
2401,1225,1
3969,400,1
7225,9,1
1521,81,1
961,400,1
1296,169,1
16,1,1
196,1,1
1849,169,1
3364,100,1
169,36,1
3249,144,1
3844,81,1
81,0,1
1600,196,1
25,1600,1
25,1024,1
1521,9,1
1156,4,1
144,225,1
961,100,1
3136,0,1
1089,36,1
16,144,1
256,16,1
484,4,1
36,324,1
169,484,1
441,4,1
1089,169,1
64,81,1
16,361,1
289,25,1
0,121,1
100,841,1
324,441,1
1369,16,0
121,225,0
1,576,0
484,36,0
900,9,0
4,81,0
25,169,0
81,9,0
1,64,0
361,81,0
25,324,0
324,121,0
64,121,0
9,196,0
361,4,0
1225,256,0
324,484,0
144,81,0
1296,25,0
1156,196,0
16,576,0
9,576,0
576,256,0
289,361,0
100,900,0
64,289,0
64,64,0
9,9,0
256,400,0
9,900,0
400,784,0
36,961,0
49,729,0
2209,100,0
3364,16,0
625,144,0
121,196,0
1296,4,0
1225,0,0
16,196,0
4,324,0
144,144,0
196,289,0
1600,625,0
361,256,0
1,49,0
121,64,0
144,49,0
256,1,0
841,4,0
196,100,0
256,144,0
1444,0,0
1024,1,0
81,169,0
225,196,0
1024,9,0
361,4,0
0,196,0
81,225,0
225,49,0
4,49,0
36,121,0
289,64,0
324,121,0
64,400,0
36,225,0
576,0,0
676,1,0
36,225,0
289,225,0
1369,36,0
324,100,0
0,400,0
324,400,0
1089,324,0
36,625,0
121,484,0
100,9,0
400,25,0
49,25,0
144,64,0
64,9,0
0,196,0
484,784,0
0,289,0
1089,100,0
324,400,0
25,1,0
36,196,0
169,256,0
16,324,0
36,121,0
289,0,0
484,4,0
25,441,0
81,729,0
900,196,0
625,81,0
100,256,0
784,81,0
3136,49,0
1936,16,0
441,169,0
676,361,0
676,289,0
16,529,0
841,900,0
400,625,0
64,361,0
169,441,0
1,256,0
784,25,0
784,81,0
36,625,0
256,625,0
1296,49,0
484,0,0
49,16,0
729,324,0
1600,400,0
196,9,0
0,16,0
324,1,0
256,36,0
121,529,0
49,729,0
361,441,0
25,529,0
256,400,0
121,49,0
1369,4,0
121,121,0
121,484,0
64,324,0
576,256,0
9,400,0
36,256,0
225,16,0
529,9,0
4,169,0
4,144,0
961,0,0
1089,0,0
25,81,0
9,100,0
441,0,0
169,9,0
25,4,0
25,0,0
196,0,0
81,144,0
289,400,0
196,441,0
841,729,0
36,1444,0
16,1089,0
676,324,0
441,225,0
0,625,0
121,484,0
784,81,0
64,36,0
121,49,0
36,0,0
484,16,0
36,36,0
4,361,0
676,225,0
676,64,0
1,196,0
0,196,0
784,16,0
625,9,0
4,144,0
64,81,0
676,16,0
196,81,0
36,196,0
16,36,0
289,1,0
0,25,0
25,121,0
625,9,0
1369,9,0
49,4,0
9,64,0
529,9,0
961,100,0
81,625,0
169,576,0
841,196,0
25,400,0
400,841,0
0,361,0
441,49,0
0,64,0
289,169,0
169,36,0
1444,1,0
225,81,0
0,64,0
225,9,0
169,169,0
36,484,0
16,169,0
841,0,0
400,0,0
16,16,0
361,16,0
1024,64,0
256,16,0
49,324,0
576,196,0
361,64,0
144,256,0
256,441,0
196,196,0
324,121,0
9,256,0
16,225,0
784,121,0
256,289,0
0,324,0
729,36,0
2401,1,0
441,100,0
0,196,0
576,49,0
900,1,0
64,121,0
256,676,0
36,961,0
144,784,0
1681,529,0
169,225,0
576,25,0
16,25,0
324,36,0
144,49,0
1600,196,0
441,0,0
169,169,0
1444,225,0
1521,196,0
25,441,0
0,529,0
676,225,0
324,196,0
81,361,0
36,256,0
1521,16,0
900,9,0
36,100,0
289,121,0
784,49,0
16,100,0
9,225,0
625,0,0
676,256,0
49,25,0
16,196,0
576,400,0
225,400,0
324,484,0
100,289,0
361,64,0
121,121,0
4,361,0
576,289,0
1444,64,0
49,49,0
25,36,0
441,0,0
529,9,0
49,169,0
1,256,0
729,100,0
144,36,0
529,144,0
25,225,0
841,81,0
256,64,0
4,144,0
289,25,0
900,0,0
25,25,0
16,289,0
529,529,0
900,484,0
1,529,0
1,400,0
1296,64,0
1444,0,0
81,169,0
169,729,0
1369,324,0
625,49,0
4,81,0
49,144,0
144,36,0
441,100,0
1156,400,0
9,289,0
289,81,0
225,49,0
289,16,0
441,1,0
784,16,0
25,144,0
256,169,0
1444,25,0
441,0,0
1,0,0
625,0,0
1444,0,0
9,64,0
81,225,0
400,121,0
529,25,0
49,36,0
36,49,0
484,9,0
144,64,0
324,529,0
1,1024,0
1024,484,0
400,169,0
1,100,0
289,16,0
1296,1,0
169,0,0
9,64,0
1089,9,0
1681,16,0
25,25,0
4,225,0
900,144,0
1089,196,0
0,576,0
0,441,0
576,64,0
16,100,0
1369,676,0
81,900,0
441,625,0
36,676,0
729,625,0
196,144,0
1764,0,0
225,9,0
9,64,0
625,25,0
529,0,0
0,4,0
49,100,0
784,81,0
121,25,0
81,9,0
225,1,0
1849,0,0
625,100,0
49,361,0
576,289,0
625,196,0
64,361,0
121,576,0
441,529,0
361,400,0
225,289,0
144,25,0
441,25,0
225,1,0
225,256,0
0,225,0
961,49,0
400,81,0
36,100,0
1156,9,0
2304,1,0
196,49,0
1,9,0
400,0,0
169,196,0
225,1089,0
0,1024,0
961,100,0
64,36,0
841,9,0
121,1,0
529,4,0
256,144,0
49,529,0
784,400,0
1296,225,0
36,256,0
16,169,0
256,9,0
196,16,0
81,256,0
16,324,0
1764,64,0
1444,36,0
64,225,0
225,225,0
1225,64,0
361,81,0
0,225,0
225,81,0
529,49,0
25,324,0
196,576,0
196,169,0
400,81,0
81,144,0
81,25,0
256,9,0
169,16,0
16,196,0
121,144,0
1089,9,0
256,1,0
0,64,0
529,100,0
1225,49,0
36,169,0
25,196,0
289,25,0
196,16,0
169,256,0
36,289,0
625,64,0
121,81,0
361,169,0
4,121,0
676,144,0
196,529,0
4,784,0
169,324,0
676,81,0
36,144,0
16,169,0
1296,4,0
1849,0,0
81,100,0
1,169,0
841,4,0
961,16,0
36,289,0
64,256,0
400,36,0
4,225,0
441,841,0
4,625,0
441,121,0
4,121,0
169,144,0
144,9,0
484,0,0
0,64,0
0,100,0
484,4,0
324,9,0
4,144,0
324,121,0
1444,25,0
400,100,0
16,225,0
400,25,0
841,64,0
16,1,0
9,169,0
289,400,0
169,441,0
225,484,0
100,324,0
361,64,0
225,36,0
25,169,0
36,144,0
784,49,0
256,196,0
1,441,0
144,169,0
676,9,0
64,36,0
25,81,0
1444,25,0
2025,16,0
81,121,0
4,121,0
225,36,0
1,144,0
529,484,0
25,225,0
625,4,0
81,64,0
100,400,0
169,225,0
1024,36,0
144,100,0
4,144,0
576,36,0
729,25,0
1,100,0
25,81,0
289,9,0
289,49,0
1,225,0
144,64,0
1225,36,0
676,1,0
100,256,0
361,484,0
676,196,0
16,121,0
1,121,0
441,49,0
529,121,0
49,676,0
81,729,0
256,64,0
169,16,0
144,4,0
49,49,0
196,25,0
100,196,0
9,529,0
841,256,0
1936,49,0
225,144,0
4,289,0
529,64,0
1089,9,0
16,100,0
9,144,0
324,36,0
25,100,0
484,441,0
25,441,0
484,144,0
16,361,0
324,729,0
16,256,0
729,1,0
81,9,0
1,49,0
324,4,0
625,9,0
16,144,0
49,169,0
1444,4,0
1369,16,0
100,289,0
169,361,0
1296,36,0
784,9,0
64,4,0
256,1,0
324,81,0
121,484,0
484,841,0
36,400,0
324,196,0
49,324,0
169,225,0
169,4,0
361,9,0
25,324,0
324,484,0
1369,144,0
361,196,0
1,400,0
324,144,0
1156,9,0
81,81,0
9,169,0
289,9,0
289,4,0
81,16,0
25,100,0
484,121,0
144,289,0
441,529,0
81,196,0
400,9,0
196,64,0
1,225,0
196,196,0
841,144,0
169,49,0
4,4,0
484,81,0
729,4,0
0,100,0
9,81,0
1156,1,0
1936,49,0
196,484,0
64,225,0
676,100,0
400,64,0
1,361,0
121,1089,0
324,1024,0
81,1156,0
529,1024,0
36,169,0
484,9,0
0,0,0
25,9,0
361,0,0
361,49,0
1,625,0
64,1089,0
900,441,0
256,169,0
1,144,0
256,36,0
961,0,0
144,49,0
1,144,0
441,36,0
576,16,0
0,100,0
0,36,0
625,25,0
361,4,0
81,169,0
25,289,0
361,121,0
144,196,0
16,361,0
64,64,0
529,1,0
36,64,0
0,196,0
900,81,0
1764,49,0
121,289,0
0,441,0
900,100,0
1225,36,0
16,169,0
1,121,0
256,36,0
25,361,0
841,900,0
9,400,0
576,49,0
25,121,0
81,324,0
196,49,0
676,9,0
9,1,0
1,1,0
400,4,0
400,64,0
1,576,0
121,529,0
1521,81,0
1089,64,0
100,361,0
289,400,0
900,64,0
121,16,0
1,64,0
225,81,0
256,100,0
144,324,0
256,361,0
225,81,0
324,64,0
64,225,0
25,121,0
256,9,0
144,64,0
4,361,0
625,169,0
1849,9,0
324,16,0
0,49,0
484,9,0
1156,1,0
0,9,0
144,81,0
256,100,0
144,225,0
361,529,0
196,400,0
225,144,0
16,256,0
100,900,0
729,900,0
4356,361,0
3025,529,0
1600,529,0
2025,25,0
961,121,0
441,144,0
4225,169,0
4761,441,0
2209,169,0
324,144,0
256,256,1
1600,49,1
1024,49,1
784,961,1
3364,3136,1
2401,1024,1
900,36,1
4624,36,1
1156,196,1
361,529,1
1369,729,1
225,900,1
8649,841,1
31684,1225,1
11881,1849,1
64,676,1
1444,81,1
7225,529,1
100,256,1
4761,196,1
3481,225,1
841,0,1
1600,576,1
784,729,1
35344,225,1
39204,225,1
1936,225,1
1369,25,1
196,625,1
4096,361,1
11025,9,1
400,81,1
289,529,1
5625,1225,1
4489,1156,1
6724,484,1
10000,289,1
1089,441,1
2116,729,1
6400,1444,1
10816,2601,1
1936,1444,1
5041,16,1
2116,1156,1
19600,400,1
32400,0,1
7569,49,1
72361,25,1
5329,484,1
8281,900,1
676,169,1
1681,64,1
21316,400,1
19600,625,1
1681,441,1
0,676,1
24964,625,1
2601,81,1
9801,25,1
1156,36,1
26569,0,1
1024,9,1
5476,81,1
1936,289,1
729,81,1
77841,81,1
163216,64,1
25921,225,1
361,900,1
19321,324,1
11664,0,1
8100,196,1
1600,576,1
7056,81,1
18496,324,1
122500,324,1
23409,9,1
6561,121,1
100,2916,1
6084,2209,1
5625,49,1
5476,64,1
13456,900,1
7569,784,1
16384,81,1
16384,9,1
1089,49,1
144,1,1
20449,4,1
1024,289,1
7056,400,1
2809,25,1
18225,324,1
3364,1681,1
19600,576,1
3025,16,1
7225,25,1
15129,1369,1
16129,900,1
6724,4,1
15376,100,1
64,1,1
81,100,1
14400,144,1
0,196,1
24964,576,1
1444,4,1
11449,169,1
225,64,1
2401,289,1
59536,36,1
138384,484,1
14884,9,1
0,1600,1
33856,2304,1
44521,1369,1
1764,441,1
18769,4,1
2209,81,1
26244,25,1
72361,144,1
4489,9,1
5776,36,1
9604,361,1
28900,256,1
1369,36,1
14884,289,1
1444,1296,1
10000,961,1
36,81,1
1296,0,1
16900,4,1
289,4,1
28900,169,1
12769,1296,1
784,2116,1
1681,784,1
22500,324,1
3364,841,1
36,256,1
15376,144,1
12996,289,1
14641,100,1
13689,25,1
14400,16,1
14161,361,1
6084,729,1
8100,64,1
400,49,1
3481,100,1
15876,729,1
6889,16,1
53361,289,1
2916,36,1
4356,25,1
18225,361,1
63001,25,1
1089,625,1
4225,576,1
5041,36,1
25,289,1
45796,961,1
22500,225,1
3136,121,1
441,1521,1
29584,2209,1
3721,676,1
3136,64,1
5184,81,1
18225,49,1
2304,4,1
18496,16,1
400,4,1
841,9,1
34969,9,1
33124,361,1
3136,1225,1
13225,400,1
69696,0,1
15376,81,1
11236,81,1
1600,81,1
441,1,1
46656,225,1
94249,196,1
2704,9,1
3364,4,1
7921,729,1
5929,900,1
16641,64,1
19321,0,1
4,16,1
3721,25,1
34596,121,1
676,441,1
14161,3364,1
7225,1849,1
47524,256,1
625,400,1
22201,676,1
841,169,1
1369,121,1
25600,729,1
7744,529,1
32761,1,1
10609,81,1
29241,961,1
13689,169,1
5041,64,1
1024,16,1
34969,361,1
1681,36,1
12769,16,1
1936,196,1
24336,324,1
2500,0,1
36100,4,1
4761,256,1
4624,169,1
80089,256,1
80656,784,1
3721,64,1
1764,49,1
33124,0,1
7569,100,1
10404,900,1
1444,900,1
2304,256,1
16384,256,1
45796,256,1
484,1,1
441,100,1
25281,0,1
26244,0,1
1681,64,1
11449,1369,1
484,2809,1
1296,1444,1
7056,324,1
4096,324,1
28561,324,1
169,100,1
14884,169,1
3025,361,1
8649,64,1
20164,4,1
20736,121,1
22500,729,1
23716,100,1
12996,64,1
12996,1,1
6724,169,1
2304,289,1
10404,169,1
4,256,1
20164,256,1
100,9,1
25921,1,1
169,361,1
8464,289,1
45796,36,1
131044,121,1
5625,49,1
2916,49,1
33489,196,1
55696,36,1
49,169,1
2401,100,1
5329,225,1
7921,1369,1
83521,2025,1
11881,1024,1
5776,256,1
11025,529,1
53361,676,1
576,36,1
6084,4,1
4900,49,1
5329,100,1
9801,1,1
13689,9,1
400,4,1
5929,64,1
26569,25,1
324,400,1
14641,961,1
49,81,1
14161,1,1
2500,289,1
21904,729,1
900,256,1
10816,225,1
6084,324,1
12769,225,1
7225,196,1
11881,196,1
3249,64,1
841,64,1
24336,361,1
12321,1,1
256,169,1
18225,0,1
69696,9,1
1444,576,1
14641,1024,1
7225,0,1
38416,324,1
3600,9,1
34225,36,1
4,121,1
4,1369,1
43681,2704,1
25600,784,1
81,1,1
20164,9,1
97969,9,1
11025,25,1
11025,4,1
256,676,1
11236,729,1
3364,49,1
20449,9,1
1,49,1
784,289,1
20449,256,1
36481,144,1
4761,16,1
8836,100,1
65536,256,1
42025,36,1
625,36,1
4096,100,1
33124,169,1
3600,324,1
5776,400,1
400,400,1
2304,900,1
23104,1369,1
28561,529,1
3721,49,1
15129,49,1
169,16,1
441,25,1
9025,9,1
529,484,1
15129,324,1
2304,9,1
1156,1,1
15376,784,1
36864,784,1
81,1,1
324,16,1
27556,361,1
19881,576,1
10201,25,1
11664,144,1
11236,841,1
3481,529,1
25921,289,1
13924,1156,1
1444,1681,1
2116,324,1
36481,64,1
6889,961,1
900,1521,1
6084,169,1
15129,121,1
2916,16,1
3025,0,1
44521,361,1
58081,841,1
16,361,1
3249,169,1
5776,4,1
529,256,1
12996,441,1
784,81,1
5929,9,1
9409,169,1
36864,324,1
196,49,1
14161,16,1
5476,196,1
28224,81,1
1024,0,1
14161,36,1
100,324,1
1089,81,1
961,1,1
2809,144,1
23716,529,1
225,900,1
45369,2401,1
6724,3481,1
3969,1024,1
3136,4,1
11449,36,1
5041,1156,1
7225,1296,1
14400,1024,1
21904,1156,1
144,289,1
196,361,1
6889,2304,1
225,1600,1
19321,441,1
36,441,1
17689,100,1
729,100,1
16641,16,1
16900,324,1
87616,81,1
3481,729,1
10404,1681,1
10201,576,1
43264,169,1
9,361,1
5776,289,1
1024,400,1
3481,2209,1
57600,2304,1
20736,225,1
64,49,1
18496,25,1
57121,16,1
729,9,1
8281,144,1
6084,25,1
16129,361,1
3025,196,1
13456,361,1
961,361,1
11236,0,1
68121,100,1
34596,16,1
169,121,1
3969,0,1
36100,1,1
4489,784,1
6400,1444,1
529,256,1
7056,144,1
11236,1225,1
30976,1225,1
25,196,1
3721,16,1
7225,81,1
6724,100,1
5929,36,1
676,144,1
17161,289,1
2304,1,1
13456,81,1
169,25,1
7921,144,1
20449,64,1
78961,256,1
441,64,1
15376,361,1
900,49,1
900,361,1
19044,1936,1
3600,1024,1
27225,49,1
5776,289,1
24025,1225,1
5329,729,1
12321,169,1
16,196,1
15625,100,1
289,9,1
18225,81,1
196,441,1
12769,324,1
1600,121,1
1849,36,1
20736,49,1
1764,64,1
47961,729,1
35721,400,1
1089,81,1
3721,49,1
3249,4,1
36,121,1
14641,144,1
49,1,1
9801,121,1
2401,1296,1
16384,1089,1
1369,196,1
7056,196,1
10816,361,1
20164,81,1
529,16,1
900,0,1
4761,100,1
1156,16,1
24025,0,1
256,324,1
21904,1296,1
6561,400,1
69696,9,1
5041,169,1
6241,225,1
1764,4,1
729,625,1
34596,3600,1
23716,2601,1
3969,441,1
1936,121,1
7396,36,1
361,25,1
5776,9,1
3721,121,1
39601,196,1
3969,0,1
4489,36,1
2025,25,1
529,49,1
85849,16,1
154449,4,1
16641,121,1
625,144,1
33856,1,1
26244,49,1
900,225,1
676,289,1
1089,9,1
23716,576,1
64009,1521,1
1024,625,1
6084,529,1
15625,1369,1
31684,529,1
3249,9,1
19321,16,1
25,729,1
289,484,1
15625,100,1
12996,225,1
4,484,1
3969,49,1
27225,49,1
256,9,1
13689,0,1
484,1,1
11449,256,1
5929,1764,1
21316,1369,1
2116,169,1
2704,361,1
32761,1681,1
27556,1296,1
5184,144,1
7744,25,1
3844,16,1
225,49,1
14400,81,1
121,81,1
15625,256,1
9,1,1
17689,36,1
1369,49,1
1156,9,1
10816,441,1
33489,900,1
5041,121,1
36,121,1
361,676,1
36,2209,1
3600,1600,1
676,9,1
625,49,1
4,529,1
225,1764,1
729,1296,1
1764,729,1
1,256,1
121,1,1
400,9,1
441,25,1
0,100,1
256,100,1
1444,484,1
169,81,1
49,676,1
144,0,1
576,1,1
0,1156,1
36,1225,1
256,144,1
100,2209,1
324,729,1
4,16,1
961,81,2
256,1,2
16,121,2
289,361,2
1600,144,2
289,400,2
16,1521,2
36,1521,2
169,1225,2
16,961,2
16,49,2
676,100,2
676,16,2
16,625,2
1,3364,2
1369,5041,2
1600,3364,2
400,324,2
529,441,2
441,1521,2
121,1369,2
441,225,2
64,16,2
196,400,2
289,841,2
324,576,2
441,484,2
729,676,2
9,324,2
1,9,2
529,196,2
196,4,2
0,1369,2
400,3025,2
1681,1225,2
784,81,2
361,784,2
1089,529,2
625,576,2
64,196,2
121,36,2
144,100,2
25,1,2
324,100,2
64,1296,2
225,784,2
1,196,2
324,1936,2
0,2025,2
625,361,2
196,625,2
81,1600,2
1444,121,2
2809,16,2
841,324,2
400,1681,2
1936,2704,2
1225,4761,2
64,5929,2
144,2209,2
49,4,2
196,484,2
1444,25,2
49,9,2
729,0,2
100,400,2
16,3364,2
441,5929,2
1089,3600,2
36,400,2
9,361,2
841,1600,2
784,1936,2
36,784,2
100,1,2
529,100,2
64,484,2
4,2116,2
225,961,2
900,0,2
169,0,2
9,36,2
484,256,2
676,1156,2
1,169,2
36,256,2
529,841,2
625,1369,2
25,1521,2
64,576,2
81,49,2
9,144,2
16,625,2
400,324,2
1156,0,2
49,121,2
36,36,2
361,1,2
841,0,2
16,256,2
4,900,2
576,144,2
169,36,2
256,841,2
0,1444,2
841,961,2
36,576,2
784,49,2
100,256,2
256,361,2
9,4,2
1,0,2
529,361,2
841,729,2
36,9,2
144,961,2
1764,2025,2
1296,841,2
144,121,2
484,36,2
2304,64,2
1521,361,2
121,900,2
196,576,2
529,225,2
1,121,2
256,49,2
0,225,2
49,729,2
225,1089,2
256,361,2
225,196,2
484,324,2
0,256,2
25,729,2
784,9,2
289,196,2
9,81,2
225,16,2
1225,361,2
144,576,2
16,25,2
121,49,2
121,4,2
225,225,2
144,81,2
256,25,2
81,0,2
225,576,2
1,1296,2
1296,1369,2
900,324,2
81,529,2
289,1936,2
784,441,2
64,16,2
169,484,2
16,729,2
36,169,2
0,256,2
121,400,2
2116,1,2
2401,81,2
324,81,2
324,324,2
1764,144,2
1156,400,2
121,1681,2
289,2304,2
441,1225,2
196,576,2
1089,361,2
9,49,2
169,0,2
49,1,2
64,100,2
361,529,2
441,1681,2
0,1156,2
16,36,2
529,25,2
196,676,2
9,1444,2
676,1849,2
1849,1681,2
400,676,2
9,4,2
289,729,2
196,2116,2
144,784,2
81,1,2
484,36,2
324,289,2
144,9,2
81,324,2
256,16,2
144,361,2
1,64,2
169,81,2
784,841,2
169,1225,2
25,81,2
841,64,2
1369,36,2
144,2025,2
49,5625,2
784,2500,2
625,16,2
16,144,2
4,256,2
324,289,2
4,4,2
256,225,2
9,16,2
529,81,2
16,121,2
121,1089,2
169,2025,2
625,1444,2
4,400,2
64,36,2
49,729,2
196,36,2
36,784,2
289,900,2
1296,9,2
676,729,2
169,1,2
841,1681,2
1369,2704,2
225,2401,2
1,1024,2
289,1,2
361,196,2
9,0,2
25,256,2
256,81,2
121,0,2
81,196,2
1,361,2
484,144,2
81,676,2
169,729,2
25,289,2
144,2809,2
9,1089,2
16,144,2
1600,1369,2
2116,1369,2
16,1024,2
81,196,2
256,441,2
121,1764,2
225,169,2
0,625,2
676,729,2
100,169,2
81,144,2
225,36,2
1225,81,2
81,36,2
9,1521,2
324,25,2
400,2916,2
49,841,2
81,1600,2
441,3600,2
784,2209,2
81,1849,2
324,2025,2
2116,784,2
1225,4,2
25,121,2
49,16,2
576,49,2
169,4,2
49,324,2
729,1156,2
676,1296,2
64,1089,2
225,441,2
121,64,2
196,25,2
100,144,2
16,169,2
784,121,2
676,576,2
16,676,2
169,36,2
784,100,2
64,9,2
4,1521,2
841,2116,2
1764,441,2
196,0,2
16,4,2
529,100,2
121,1225,2
484,2500,2
256,324,2
144,1225,2
0,2209,2
961,484,2
225,25,2
225,1,2
64,64,2
0,1089,2
484,1089,2
841,16,2
49,576,2
100,1369,2
2304,1296,2
3025,1296,2
400,1681,2
81,1156,2
1089,441,2
784,256,2
0,289,2
0,121,2
64,49,2
169,676,2
576,2025,2
16,784,2
484,100,2
4,64,2
25,4,2
361,0,2
576,289,2
4,400,2
9,36,2
529,1681,2
169,2025,2
4,289,2
225,25,2
1156,64,2
100,64,2
49,225,2
289,400,2
1089,441,2
100,361,2
0,36,2
256,225,2
144,225,2
144,144,2
25,1764,2
484,2401,2
324,1444,2
0,484,2
64,9,2
576,25,2
64,9,2
64,49,2
144,4,2
676,36,2
16,81,2
0,1936,2
1764,1296,2
3364,576,2
676,4624,2
225,3969,2
484,1849,2
25,1764,2
1296,1600,2
225,576,2
441,729,2
64,1849,2
64,1024,2
441,49,2
1521,1024,2
100,324,2
9,144,2
289,784,2
400,1936,2
36,3025,2
25,729,2
361,144,2
256,225,2
25,0,2
441,16,2
1600,144,2
676,144,2
36,784,2
169,1444,2
121,256,2
196,100,2
196,961,2
289,1849,2
484,729,2
0,16,2
16,256,2
729,196,2
361,16,2
1,784,2
36,3969,2
484,3481,2
81,1681,2
0,529,2
400,0,2
900,1,2
64,256,2
4,169,2
961,25,2
1444,4,2
49,1156,2
9,1521,2
144,441,2
0,900,2
400,1089,2
0,529,2
729,100,2
9,529,2
256,2809,2
121,1681,2
841,25,2
1,961,2
256,676,2
121,784,2
625,1024,2
16,484,2
25,256,2
1156,256,2
1369,36,2
225,144,2
256,441,2
841,784,2
196,196,2
9,729,2
441,1225,2
625,144,2
64,484,2
324,961,2
144,36,2
289,49,2
81,36,2
81,400,2
484,256,2
729,289,2
121,1681,2
529,1024,2
1444,81,2
225,25,2
36,324,2
196,961,2
841,961,2
36,441,2
16,529,2
529,2916,2
784,6561,2
16,4489,2
100,256,2
1024,361,2
100,9,2
729,841,2
144,784,2
361,1,2
100,529,2
36,961,2
144,1225,2
1024,1444,2
169,3600,2
0,7744,2
289,6724,2
576,2601,2
4,841,2
36,81,2
676,729,2
900,2304,2
4,1849,2
25,1681,2
484,2916,2
0,5625,2
400,6889,2
36,4900,2
676,2809,2
4,1681,2
144,676,2
121,100,2
529,100,2
25,289,2
64,100,2
961,9,2
625,256,2
9,1444,2
289,676,2
1444,64,2
441,225,2
36,25,2
484,9,2
900,529,2
25,1089,2
4,1024,2
400,1024,2
289,841,2
144,169,2
100,225,2
196,625,2
81,196,2
100,81,2
36,169,2
1225,169,2
484,256,2
0,441,2
49,169,2
324,196,2
0,1089,2
4,900,2
1156,729,2
2304,625,2
225,361,2
16,324,2
900,324,2
841,289,2
16,81,2
25,16,2
225,36,2
9,576,2
784,576,2
16,121,2
324,225,2
1,324,2
100,36,2
289,729,2
576,1681,2
4,2401,2
9,1681,2
484,289,2
361,361,2
9,1444,2
324,484,2
1849,81,2
1089,1296,2
169,1849,2
400,529,2
625,36,2
25,361,2
0,289,2
441,64,2
400,144,2
100,900,2
81,441,2
361,9,2
225,49,2
100,144,2
36,144,2
225,4,2
81,1369,2
36,4761,2
1296,2704,2
2209,729,2
169,169,2
16,25,2
324,361,2
576,0,2
9,1681,2
25,2809,2
289,961,2
36,484,2
484,196,2
64,0,2
484,36,2
36,676,2
324,1225,2
4,625,2
625,441,2
64,729,2
9,324,2
784,25,2
1225,484,2
121,169,2
81,1,2
1089,0,2
1024,1,2
100,81,2
196,529,2
1296,784,2
841,25,2
169,576,2
441,441,2
484,81,2
9,484,2
196,256,2
16,36,2
4,1,2
625,25,2
324,196,2
400,16,2
625,361,2
36,1849,2
361,1936,2
1600,576,2
361,256,2
4,441,2
169,676,2
961,2209,2
121,5625,2
0,4096,2
361,324,2
256,36,2
196,4,2
169,49,2
144,81,2
25,196,2
256,1156,2
25,2304,2
1296,1681,2
529,484,2
1,25,2
144,64,2
529,484,2
4,529,2
100,100,2
144,4,2
576,4,2
25,144,2
49,169,2
1444,1,2
1681,0,2
144,81,2
121,64,2
961,1,2
484,0,2
0,144,2
64,225,2
196,169,2
169,529,2
576,841,2
49,400,2
576,225,2
1,441,2
25,441,2
361,100,0
484,36,0
1,144,0
64,49,0
784,1,0
256,1,0
4,64,0
400,36,0
900,9,0
144,64,0
49,81,0
625,4,0
361,196,0
100,1024,0
64,1089,0
400,484,0
361,361,0
9,576,0
25,324,0
784,64,0
225,81,0
49,169,0
36,49,0
529,4,0
16,100,0
16,169,0
625,25,0
1521,4,0
64,196,0
1,361,0
729,100,0
1024,64,0
4,400,0
0,361,0
324,81,0
0,196,0
484,484,0
4,196,0
676,25,0
1,169,0
256,361,0
121,81,0
529,1,0
36,36,0
64,81,0
484,25,0
576,81,0
1,225,0
169,225,0
1444,196,0
529,196,0
9,144,0
529,4,0
1681,36,0
361,1,0
16,16,0
324,4,0
169,0,0
256,16,0
81,81,0
676,64,0
441,144,0
100,576,0
1,441,0
784,100,0
289,529,0
0,2304,0
784,1296,0
2209,81,0
225,25,0
1,49,0
841,0,0
1369,4,0
1,16,0
100,16,0
196,25,0
4,64,0
1444,0,0
256,25,0
529,25,0
25,169,0
484,625,0
25,529,0
1024,196,0
144,225,0
16,256,0
900,49,0
961,36,0
1,256,0
4,100,0
900,100,0
676,16,0
4,289,0
81,400,0
1936,100,0
1369,64,0
144,324,0
400,441,0
900,196,0
25,196,0
16,324,0
324,225,0
361,121,0
225,289,0
324,400,0
169,169,0
225,121,0
81,289,0
1,196,0
676,36,0
256,25,0
1,4,0
625,81,0
1849,121,0
144,9,0
9,0,0
625,0,0
1225,16,0
0,256,0
81,529,0
225,400,0
9,625,0
961,1296,0
121,961,0
729,400,0
324,225,0
0,36,0
256,4,0
900,9,0
16,9,0
81,64,0
324,36,0
729,64,0
0,196,0
0,196,0
1681,36,0
2116,64,0
64,361,0
36,400,0
1444,121,0
1024,81,0
4,144,0
64,121,0
361,81,0
121,196,0
784,289,0
36,81,0
484,9,0
81,81,0
289,25,0
256,36,0
441,0,0
16,256,0
25,324,0
1089,169,0
441,324,0
0,729,0
484,441,0
1849,144,0
324,169,0
1,100,0
256,4,0
289,64,0
64,9,0
25,16,0
625,100,0
289,324,0
256,576,0
64,289,0
529,36,0
361,100,0
0,441,0
100,441,0
784,289,0
169,625,0
49,841,0
1444,169,0
2209,4,0
81,49,0
16,49,0
784,1,0
1156,25,0
16,4,0
100,25,0
144,9,0
1,121,0
729,400,0
36,169,0
441,25,0
4,81,0
289,121,0
36,36,0
625,25,0
49,144,0
25,225,0
841,1,0
729,64,0
9,16,0
49,225,0
1024,100,0
576,49,0
9,100,0
196,169,0
1089,121,0
324,169,0
36,324,0
625,324,0
729,576,0
1,841,0
25,529,0
484,64,0
400,4,0
64,144,0
25,196,0
400,121,0
144,225,0
100,289,0
4,25,0
576,100,0
144,121,0
9,0,0
900,36,0
1681,100,0
49,256,0
25,196,0
625,16,0
1089,36,0
0,484,0
0,625,0
441,289,0
4,324,0
841,441,0
49,144,0
529,81,0
100,225,0
9,100,0
196,4,0
441,16,0
4,256,0
49,361,0
361,121,0
484,100,0
1,324,0
9,169,0
1444,1,0
1681,1,0
256,169,0
256,169,0
729,49,0
169,64,0
36,144,0
625,64,0
576,100,0
169,576,0
441,676,0
100,81,0
324,4,0
100,100,0
49,64,0
441,25,0
289,16,0
0,64,0
256,81,0
1225,81,0
225,289,0
0,361,0
576,0,0
1225,169,0
0,1,0
144,169,0
144,256,0
81,484,0
324,841,0
25,484,0
900,121,0
256,196,0
225,484,0
0,256,0
729,36,0
196,196,0
0,400,0
361,100,0
961,25,0
81,169,0
4,225,0
841,9,0
1600,1,0
529,25,0
361,0,0
1225,144,0
784,49,0
0,100,0
16,256,0
256,196,0
81,484,0
676,961,0
9,289,0
441,4,0
36,121,0
256,529,0
169,324,0
529,196,0
0,529,0
49,625,0
841,225,0
256,49,0
16,49,0
169,1,0
1296,64,0
324,25,0
16,36,0
576,144,0
900,100,0
9,36,0
0,0,0
529,1,0
289,169,0
225,625,0
64,576,0
529,81,0
324,0,0
16,9,0
36,9,0
625,16,0
81,324,0
25,576,0
169,256,0
625,121,0
25,324,0
9,400,0
1369,64,0
1764,16,0
25,169,0
1,169,0
841,16,0
961,36,0
9,361,0
9,361,0
169,100,0
144,225,0
961,400,0
9,81,0
256,16,0
0,0,0
0,64,0
729,121,0
841,144,0
1,289,0
4,256,0
625,144,0
324,169,0
0,361,0
196,225,0
1296,36,0
400,36,0
36,81,0
529,36,0
784,4,0
4,36,0
1,144,0
529,121,0
324,121,0
81,256,0
25,225,0
484,100,0
256,196,0
64,529,0
4,225,0
484,16,0
100,64,0
4,121,0
784,9,0
1681,4,0
81,81,0
64,81,0
400,1,0
841,1,0
1,324,0
16,441,0
361,100,0
1,169,0
1089,441,0
81,256,0
784,49,0
144,196,0
121,529,0
81,169,0
841,0,0
81,9,0
9,81,0
900,49,0
1024,64,0
1,324,0
0,324,0
529,81,0
441,64,0
16,169,0
361,49,0
1849,9,0
729,0,0
9,169,0
225,289,0
625,256,0
4,441,0
144,289,0
225,4,0
400,0,0
49,169,0
36,256,0
529,49,0
400,36,0
9,121,0
441,36,0
1600,4,0
289,100,0
4,225,0
400,64,0
961,36,0
4,196,0
36,196,0
324,25,0
144,4,0
441,49,0
196,25,0
400,16,0
49,4,0
484,196,0
9,361,0
841,196,0
324,529,0
4,961,0
529,529,0
1369,144,0
81,169,0
64,81,0
121,4,0
361,9,0
0,121,0
25,225,0
1849,81,0
1936,121,0
144,441,0
81,289,0
625,25,0
225,16,0
0,144,0
256,225,0
484,169,0
121,361,0
484,324,0
36,64,0
225,9,0
36,196,0
0,361,0
676,121,0
289,81,0
16,289,0
100,169,0
1156,36,0
256,25,0
0,9,0
196,0,0
441,1,0
1,81,0
4,81,0
529,9,0
441,36,0
81,256,0
4,225,0
729,49,0
400,144,0
9,441,0
64,324,0
841,144,0
169,256,0
9,289,0
196,81,0
729,36,0
9,144,0
9,81,0
841,9,0
1521,4,0
64,196,0
1,289,0
841,9,0
900,4,0
4,100,0
36,289,0
441,196,0
16,441,0
625,729,0
4,256,0
576,81,0
0,289,0
81,289,0
361,16,0
576,36,0
0,324,0
4,225,0
676,4,0
256,4,0
16,121,0
121,81,0
1225,9,0
324,100,0
4,256,0
400,81,0
841,9,0
25,49,0
0,100,0
625,49,0
484,81,0
100,196,0
100,169,0
289,121,0
256,169,0
25,25,0
36,49,0
729,25,0
169,121,0
0,676,0
625,529,0
1369,196,0
25,225,0
36,225,0
676,16,0
1369,1,0
36,529,0
1,1225,0
169,484,0
1,400,0
676,400,0
36,9,0
400,25,0
0,25,0
484,49,0
64,49,0
1156,64,0
144,81,0
0,49,0
484,81,2
841,16,2
100,64,2
169,49,2
1089,1,2
625,121,2
64,49,2
400,2704,2
1296,4489,2
196,1764,2
49,25,2
144,900,2
676,625,2
16,441,2
1,2500,2
484,1521,2
400,1444,2
144,3600,2
169,2304,2
225,36,2
100,25,2
324,36,2
16,484,2
961,1521,2
676,3600,2
81,4225,2
729,576,2
1024,484,2
0,1369,2
49,441,2
484,289,2
256,900,2
441,36,2
144,1936,2
576,2304,2
144,1,2
361,1296,2
16,289,2
729,225,2
400,3025,2
25,5184,2
676,4761,2
1600,3969,2
100,1521,2
36,0,2
256,900,2
676,256,2
36,441,2
169,1444,2
2116,1024,2
1936,225,2
81,225,2
100,1369,2
1225,36,2
441,900,2
4,1444,2
81,841,2
169,225,2
441,169,2
900,625,2
100,1024,2
784,1369,2
9,1225,2
144,225,2
289,324,2
400,1089,2
0,361,2
169,16,2
1369,225,2
529,144,2
1,256,2
441,144,2
1521,169,2
196,676,2
4,961,2
196,2025,2
144,1024,2
100,49,2
4,625,2
441,961,2
64,2025,2
256,1764,2
4,529,2
324,289,2
4,400,2
169,25,2
36,1521,2
576,1936,2
36,400,2
0,16,2
1156,36,2
2209,4,2
256,361,2
100,1936,2
1600,2704,2
1849,1764,2
324,3481,2
324,6561,2
841,2809,2
49,9,2
1521,121,2
81,144,2
196,1089,2
121,784,2
529,121,2
36,0,2
121,64,2
81,81,2
9,100,2
1156,81,2
676,0,2
9,100,2
256,1024,2
961,900,2
1,49,2
196,1681,2
289,2209,2
1296,625,2
121,1,2
64,841,2
1521,2209,2
1089,2209,2
25,1764,2
16,400,2
841,0,2
484,16,2
25,81,2
100,400,2
1296,2025,2
169,1849,2
121,9,2
121,961,2
784,841,2
4,81,2
49,64,2
784,441,2
1600,1296,2
100,2704,2
64,2916,2
625,2209,2
16,2025,2
1764,361,2
225,441,2
484,1156,2
9,16,2
256,625,2
121,9,2
784,2916,2
9,4624,2
0,1369,2
784,0,2
529,676,2
49,1764,2
4,1225,2
529,36,2
289,784,2
4,36,2
361,169,2
1521,256,2
676,121,2
324,4,2
1444,16,2
1444,49,2
9,144,2
4,256,2
576,144,2
324,729,2
324,2401,2
196,1521,2
324,576,2
121,289,2
121,49,2
36,36,2
900,100,2
81,0,2
144,25,2
289,36,2
1681,1,2
196,36,2
1,169,2
784,1296,2
1369,81,2
1,2500,2
9,6084,2
400,5625,2
1,4900,2
961,3481,2
16,1369,2
1156,196,2
196,0,2
121,100,2
121,441,2
484,16,2
81,2116,2
256,5041,2
400,1936,2
676,9,2
25,676,2
49,324,2
3136,16,2
3364,25,2
784,289,2
1444,676,2
2500,729,2
169,289,2
16,0,2
576,441,2
196,1849,2
1764,1681,2
1369,36,2
324,676,2
144,729,2
841,25,2
4,25,2
1681,100,2
49,196,2
576,4,2
441,121,2
2401,529,2
16,121,2
9,784,2
3136,3844,2
3969,2809,2
4,576,2
144,225,2
625,289,2
16,144,2
3136,36,2
324,36,2
1600,400,2
49,1444,2
1600,1681,2
36,256,2
1296,169,2
400,144,2
81,0,2
1156,169,2
1296,1444,2
9,841,2
1,4,2
576,25,2
484,4,2
25,121,2
81,169,2
2601,100,2
1849,9,2
25,144,2
25,900,2
400,1600,2
16,2401,2
784,2704,2
4,2304,2
676,2500,2
9,2916,2
100,2116,2
144,576,2
400,64,2
1,961,2
0,784,2
676,49,2
841,36,2
144,169,2
256,256,2
784,1024,2
144,2601,2
1,1444,2
625,36,2
1225,1600,2
81,625,2
1,16,2
484,196,2
324,441,2
169,1296,2
64,729,2
484,49,2
361,625,2
49,36,2
4,729,2
676,1296,2
256,676,2
1,64,2
81,81,2
625,64,2
49,2500,2
9,3136,2
441,64,2
841,1225,2
1,361,2
4,169,2
784,196,2
961,25,2
9,169,2
9,9,2
529,9,2
36,49,2
324,25,2
16,64,2
225,900,2
9,1156,2
9,361,2
400,361,2
729,1764,2
16,3600,2
1,1024,2
225,225,2
324,324,2
64,169,2
225,961,2
1225,729,2
961,841,2
256,1369,2
529,1369,2
729,1444,2
16,1600,2
64,900,2
49,9,2
169,484,2
49,900,2
144,1369,2
49,1369,2
81,529,2
1,1089,2
36,2601,2
676,1444,2
361,81,2
64,144,2
529,36,2
1156,1,2
169,784,2
4,1849,2
400,961,2
784,1681,2
36,5625,2
1,7569,2
144,2916,2
4,324,2
1024,36,2
400,64,2
196,729,2
81,676,2
81,256,2
64,529,2
961,144,2
484,1089,2
169,3249,2
676,1849,2
784,841,2
36,729,2
4,729,2
529,361,2
625,0,2
36,289,2
81,529,2
484,144,2
256,400,2
49,1681,2
361,1156,2
784,484,2
36,784,2
25,961,2
196,0,2
484,324,2
4,0,2
16,169,2
144,16,2
169,225,2
0,729,2
49,324,2
324,49,2
25,144,2
1,900,2
324,729,2
1089,289,2
225,16,2
16,64,2
361,25,2
529,484,2
9,3249,2
16,5184,2
576,3364,2
225,1936,2
100,961,2
16,64,2
289,3025,2
81,5929,2
16,3481,2
25,576,2
289,16,2
36,324,2
0,361,2
225,441,2
400,625,2
4,289,2
0,16,2
729,1,2
1444,1444,2
400,3364,2
196,100,2
676,1296,2
676,256,2
324,841,2
676,3249,2
1024,3481,2
9,2401,2
441,324,2
49,676,2
4,256,2
121,2116,2
81,7396,2
361,5929,2
625,2209,2
25,49,2
16,1156,2
361,1156,2
121,0,2
1,169,2
169,25,2
841,49,2
196,256,2
4,289,2
289,225,2
361,256,2
1,324,2
1,144,2
289,121,2
169,1024,2
25,441,2
1,25,2
400,25,2
289,324,2
9,441,2
121,196,2
529,16,2
81,9,2
1,16,2
529,81,2
1024,16,2
36,289,2
1,196,2
841,400,2
1156,361,2
25,1156,2
1,2304,2
144,256,2
9,36,2
484,144,2
16,16,2
400,25,2
25,4,2
49,289,2
196,1444,2
841,2304,2
196,2025,2
81,361,2
625,36,2
441,4,2
0,676,2
25,529,2
484,64,2
324,36,2
81,289,2
361,4,2
961,1936,2
196,2704,2
25,529,2
25,1,2
225,441,2
9,1764,2
1,2025,2
121,784,2
100,225,2
16,81,2
9,256,2
400,676,2
100,1156,2
1,729,2
400,64,2
1600,1936,2
676,1225,2
169,16,2
729,0,2
784,529,2
9,64,2
0,1444,2
289,4225,2
100,4225,2
144,2500,2
16,1600,2
324,1849,2
121,2601,2
9,4096,2
121,4900,2
900,2500,2
324,361,2
16,49,2
169,225,2
400,25,2
9,0,2
25,289,2
81,1369,2
256,81,2
36,1089,2
225,361,2
1521,361,2
1296,576,2
144,0,2
144,441,2
484,196,2
121,36,2
0,49,2
121,1,2
169,0,2
169,196,2
441,169,2
64,0,2
400,0,2
0,196,2
16,400,2
196,25,2
169,361,2
9,961,2
289,676,2
900,81,2
169,1225,2
1,3481,2
256,1296,2
529,324,2
36,625,2
9,441,2
400,0,2
196,256,2
121,169,2
16,49,2
400,1,2
289,289,2
9,1156,2
169,1296,2
784,1296,2
324,1024,2
36,256,2
196,4,2
324,16,2
9,225,2
1,49,2
576,16,2
900,64,2
36,225,2
0,16,2
400,529,2
484,484,2
25,25,2
100,36,2
441,529,2
36,2116,2
121,2304,2
9,361,2
256,9,2
0,4,2
25,361,2
121,576,2
100,529,2
36,676,2
0,361,2
400,16,2
441,121,2
36,900,2
169,324,2
784,9,2
361,4,2
144,16,2
841,16,2
1089,9,2
100,0,2
1,1,2
256,49,2
144,841,2
81,1764,2
4,1024,2
441,36,2
121,625,2
169,2025,2
4,196,2
625,1521,2
441,2304,2
81,400,2
625,4,2
1296,1,2
144,4,2
9,1,2
144,144,2
400,256,2
9,324,2
16,441,2
484,484,2
100,841,2
144,529,2
1,100,2
324,225,2
16,961,2
49,1681,2
196,576,2
841,16,2
144,49,2
16,289,2
324,49,2
361,0,2
9,81,2
16,36,2
484,49,2
324,49,2
16,4,2
169,1,2
900,121,2
576,36,2
169,16,2
484,16,2
841,9,2
256,0,2
100,25,2
400,0,2
144,1,2
64,289,2
16,900,2
1681,576,2
784,225,2
784,484,2
2025,1024,2
484,400,2
324,225,1
196,144,1
1,81,1
144,900,1
256,2116,1
25,1521,1
49,25,1
961,1600,1
3025,2209,1
9604,1296,1
11664,225,1
1521,361,1
961,729,1
324,25,1
3136,9,1
5929,729,1
169,1764,1
2500,289,1
3969,144,1
1764,169,1
1024,25,1
17689,1,1
20736,361,1
2116,25,1
529,2401,1
100,2704,1
4,1089,1
1681,1764,1
3364,1764,1
25,144,1
196,9,1
3600,361,1
4096,1024,1
0,169,1
1024,1089,1
7396,6241,1
144,3721,1
7744,324,1
4096,400,1
16,784,1
225,0,1
1089,484,1
9,100,1
576,36,1
0,900,1
121,1296,1
1024,256,1
3721,100,1
16,121,1
2809,441,1
400,1764,1
7396,169,1
47524,400,1
52441,9,1
26244,1024,1
8649,169,1
576,144,1
40000,100,1
76176,900,1
24025,400,1
1156,441,1
1521,900,1
324,36,1
10000,841,1
1444,1444,1
64,1156,1
6889,841,1
19881,9,1
1444,2401,1
3249,2401,1
225,81,1
841,49,1
81,2704,1
1936,3600,1
18496,256,1
5625,36,1
20736,529,1
47524,1,1
5041,484,1
3600,4,1
6241,841,1
15625,144,1
31684,4,1
6241,625,1
2025,1849,1
2304,529,1
121,121,1
729,625,1
100,144,1
7569,121,1
14161,25,1
3249,324,1
4624,144,1
21316,121,1
7396,81,1
5776,1,1
11881,100,1
9,64,1
2401,169,1
4,324,1
2304,1,1
3364,4,1
14161,784,1
39204,529,1
3249,25,1
100,0,1
6084,784,1
1849,1156,1
15376,1024,1
19321,1681,1
1296,1024,1
169,4,1
1521,361,1
25,16,1
3025,49,1
729,1225,1
7396,784,1
676,729,1
5041,3600,1
4900,3721,1
12769,5625,1
4096,5929,1
26244,400,1
2304,1089,1
225,961,1
1521,256,1
1600,729,1
1,625,1
1444,196,1
12100,1764,1
4900,676,1
2116,529,1
4225,3136,1
2116,3025,1
10816,25,1
24336,2209,1
5929,441,1
441,4,1
16384,169,1
37249,225,1
10609,49,1
6561,81,1
21316,4,1
1681,1521,1
9409,4356,1
81,1024,1
9801,16,1
529,0,1
36864,100,1
21025,961,1
529,196,1
3136,1156,1
14641,1849,1
9409,225,1
5476,289,1
4761,1600,1
9,196,1
4489,1156,1
484,841,1
3481,25,1
961,1,1
32761,144,1
18769,1521,1
3025,1600,1
13924,289,1
19881,256,1
1,1296,1
5184,625,1
225,9,1
1521,361,1
3969,1369,1
6561,576,1
1444,400,1
5625,1156,1
529,256,1
4225,1156,1
7744,2401,1
1156,9,1
6084,1024,1
2500,361,1
10000,1,1
49,256,1
1225,484,1
729,4,1
400,225,1
16384,1681,1
13456,196,1
1089,729,1
961,441,1
5184,1,1
729,4,1
3844,16,1
1369,841,1
81,2116,1
5929,625,1
23716,961,1
5625,4356,1
64,3249,1
1764,81,1
784,16,1
484,841,1
121,144,1
11664,576,1
12100,961,1
1,1024,1
1936,2704,1
784,2916,1
2500,400,1
100,121,1
12321,441,1
14641,1764,1
169,5041,1
5776,2209,1
169,25,1
6724,16,1
225,784,1
529,289,1
2500,121,1
784,1,1
5041,225,1
441,4,1
2916,9,1
2209,2209,1
14641,3844,1
25,225,1
8281,0,1
121,1225,1
4356,1089,1
1,49,1
400,256,1
15129,1,1
6400,16,1
7569,100,1
19044,441,1
3481,196,1
2025,196,1
7569,324,1
2209,841,1
4,3249,1
784,900,1
2209,361,1
1296,1600,1
4225,676,1
4761,729,1
19044,2304,1
2116,256,1
169,0,1
625,361,1
1225,64,1
529,169,1
361,0,1
1444,64,1
2116,625,1
19044,1600,1
625,196,1
5329,169,1
484,2025,1
8281,1681,1
36,324,1
9025,1024,1
8281,2500,1
10404,441,1
15625,361,1
4225,324,1
784,49,1
16,625,1
16129,324,1
10000,1225,1
9,2704,1
64,256,1
9,1,1
21316,529,1
38809,784,1
1296,144,1
3249,625,1
1225,1764,1
2500,169,1
2704,324,1
2304,25,1
1369,25,1
289,400,1
324,1521,1
7921,81,1
25921,529,1
576,529,1
14884,961,1
3136,3136,1
36,841,1
12769,1600,1
28561,3721,1
2916,400,1
1764,256,1
11881,1296,1
196,3481,1
11025,3481,1
529,484,1
7921,25,1
25,784,1
9216,1444,1
1225,576,1
19044,1156,1
169,3600,1
10404,1764,1
2916,49,1
81,400,1
1681,9,1
16,25,1
8464,484,1
5776,64,1
625,9,1
961,361,1
1444,784,1
16,0,1
2401,169,1
1089,25,1
9216,25,1
100,441,1
441,196,1
7569,144,1
14641,9,1
289,1936,1
256,2209,1
5625,529,1
6561,576,1
1444,1024,1
2704,49,1
100,484,1
5476,289,1
22201,36,1
16,324,1
20736,169,1
1225,400,1
3721,484,1
9025,4,1
36864,9,1
625,1225,1
2704,1681,1
2401,625,1
529,1681,1
13689,3025,1
12321,289,1
729,64,1
8100,324,1
24336,1225,1
1764,225,1
2916,9,1
16,729,1
225,1296,1
11236,36,1
22201,100,1
1681,9,1
36,25,1
4096,1225,1
6241,841,1
49,36,1
400,64,1
17161,169,1
10816,100,1
169,841,1
9,324,1
169,289,1
7569,2704,1
14641,4356,1
1,2116,1
3481,1444,1
784,1225,1
324,16,1
14161,2304,1
12769,900,1
16,0,1
36,289,1
7921,729,1
3600,676,1
196,3481,1
14161,400,1
41616,81,1
1225,256,1
17956,841,1
4489,169,1
196,729,1
11236,4096,1
11449,3136,1
81,441,1
1089,289,1
35344,784,1
16384,25,1
2704,196,1
2916,25,1
961,529,1
100,49,1
7744,36,1
729,196,1
625,576,1
729,64,1
529,361,1
2500,36,1
484,16,1
8281,784,1
11881,1089,1
2401,196,1
6724,81,1
21609,1,1
2500,1521,1
3481,3025,1
256,484,1
5184,9,1
3969,625,1
14400,1600,1
1369,256,1
18225,16,1
5329,36,1
900,25,1
1296,64,1
784,0,1
13225,121,1
6561,25,1
9,196,1
256,169,1
2916,841,1
400,100,1
7225,64,1
64,1296,1
2116,784,1
196,64,1
25,16,1
8100,2025,1
3364,625,1
6561,400,1
12100,225,1
16,25,1
729,16,1
1225,36,1
324,484,1
196,1600,1
4225,729,1
16129,484,1
784,1369,1
1225,169,1
3481,1764,1
5184,2025,1
3969,16,1
3969,529,1
10404,1,1
22201,1,1
3364,529,1
2401,529,1
8836,400,1
256,2304,1
7225,3481,1
1156,729,1
2209,121,1
484,1296,1
10404,1936,1
2025,121,1
1,36,1
5041,144,1
5184,289,1
4096,4,1
13924,49,1
1600,121,1
1936,169,1
11449,1369,1
1296,441,1
4900,64,1
1024,144,1
1849,144,1
4,1089,1
2025,1444,1
441,169,1
784,64,1
5476,625,1
3969,400,1
3721,36,1
2704,289,1
5625,225,1
6561,324,1
961,1089,1
64,1,1
9604,484,1
729,9,1
6084,169,1
1,324,1
529,841,1
21316,4,1
55225,121,1
10201,256,1
49,81,1
3844,100,1
576,256,1
15129,2209,1
14161,289,1
49,144,1
1,400,1
3481,2500,1
400,961,1
11025,289,1
676,961,1
2809,1156,1
25,256,1
2116,16,1
1681,49,1
5476,1,1
484,25,1
4096,441,1
64,1600,1
729,121,1
25281,324,1
44521,49,1
20736,225,1
11664,100,1
4096,0,1
6241,121,1
21904,256,1
2209,1,1
961,25,1
484,625,1
6561,36,1
1764,676,1
900,196,1
4761,49,1
1,1,1
13924,64,1
5041,576,1
729,1764,1
729,400,1
6400,49,1
676,729,1
3969,1024,1
3600,100,1
7569,225,1
4096,1600,1
16641,441,1
484,64,1
25,169,1
9801,1764,1
3969,441,1
1681,16,1
0,9,1
7744,9,1
49,529,1
15876,144,1
9409,2025,1
1156,3721,1
5929,256,1
14884,169,1
4761,4,1
1681,4,1
13456,961,1
12769,1156,1
196,9,1
625,529,1
10816,324,1
16900,961,1
576,1225,1
256,0,1
729,400,1
16129,9,1
15625,361,1
729,9,1
5041,49,1
4900,1225,1
30625,625,1
14641,144,1
2025,169,1
361,36,1
2116,16,1
15876,1,1
5929,1089,1
121,2704,1
196,1024,1
361,484,1
7056,1369,1
8100,1444,1
2116,324,1
10609,576,1
289,2601,1
9216,1225,1
64,100,1
1444,121,1
100,9,1
1089,100,1
30276,225,1
33489,81,1
3136,289,1
1024,16,1
6889,169,1
169,4,1
1225,1,1
7921,841,1
29929,1024,1
2809,64,1
1936,441,1
256,324,1
1024,484,1
4489,529,1
5041,1849,1
1296,1936,1
196,3600,1
7396,3721,1
4489,484,1
36,4,1
1600,225,1
11025,169,1
576,441,1
1936,441,1
1936,100,1
7225,196,1
121,1,1
1156,81,1
961,900,1
81,1156,1
17956,361,1
21025,324,1
6561,400,1
13924,9,1
20736,0,1
324,289,1
23104,484,1
1444,25,1
6084,0,1
256,256,1
5329,64,1
1936,225,1
11664,36,1
1225,441,1
169,361,1
1369,16,1
1296,121,1
784,0,1
4,4,1
2025,9,1
1600,1600,1
8836,1936,1
225,64,1
9409,1156,1
729,1,1
256,784,1
11449,196,1
4489,256,1
5184,1444,1
4489,729,1
225,0,1
18225,256,1
59049,1521,1
10404,625,1
10816,361,1
5776,2025,1
3481,1600,1
1369,1,1
961,100,1
4,49,1
36,36,1
4900,1,1
3969,196,1
100,1024,1
2304,289,1
28561,169,1
32041,144,1
4624,16,1
1936,49,1
7396,324,1
625,1,1
1521,225,1
100,4,1
1296,16,1
3249,676,1
10404,784,1
529,9,1
289,100,1
841,1681,1
1,961,1
12321,1,1
12100,0,1
49,49,1
25,64,1
4356,100,1
9,576,1
4225,1521,1
144,225,1
9,100,1
11664,625,1
19881,81,1
121,400,1
1156,1,1
5929,2025,1
11449,900,1
400,144,1
25,144,1
2025,36,1
400,1,1
14161,0,1
3969,676,1
441,1024,1
1444,9,1
11664,16,1
1764,1089,1
625,625,1
24964,289,1
47961,784,1
11236,36,1
16,225,1
36,0,1
144,196,1
36,676,1
0,49,1
16,0,1
841,961,1
2025,2304,1
169,676,1
9,121,1
361,729,1
400,441,1
100,144,1
256,49,1
9,400,0
256,49,0
1089,144,0
196,4,0
16,400,0
100,36,0
256,36,0
81,144,0
256,484,0
25,81,0
4,81,0
361,961,0
1,961,0
900,144,0
576,121,0
9,400,0
121,144,0
784,4,0
196,196,0
1,576,0
289,169,0
784,64,0
64,289,0
0,100,0
441,400,0
676,676,0
4,81,0
1,576,0
441,25,0
576,0,0
9,289,0
4,361,0
144,100,0
1,625,0
4,1600,0
289,729,0
361,169,0
0,289,0
1,169,0
441,4,0
441,0,0
0,225,0
0,144,0
289,1,0
484,16,0
576,256,0
1521,64,0
1849,0,0
289,36,0
1,121,0
196,0,0
576,25,0
49,36,0
16,100,0
484,1,0
169,49,0
324,676,0
196,529,0
81,36,0
9,100,0
225,441,0
36,121,0
81,9,0
0,196,0
36,400,0
361,49,0
1369,4,0
576,361,0
441,576,0
2116,0,0
2209,121,0
196,64,0
16,256,0
169,36,0
9,324,0
676,1444,0
121,576,0
64,1,0
64,49,0
361,400,0
81,36,0
900,16,0
256,121,0
196,400,0
1225,36,0
1521,9,0
289,169,0
196,36,0
729,9,0
324,121,0
1,676,0
81,256,0
400,4,0
36,0,0
9,16,0
121,81,0
289,121,0
1,121,0
9,400,0
400,100,0
576,169,0
1,841,0
1,625,0
529,100,0
289,324,0
9,1024,0
4,625,0
256,36,0
16,16,0
9,81,0
400,9,0
961,9,0
100,441,0
9,529,0
841,1,0
1225,16,0
81,196,0
16,289,0
289,9,0
0,225,0
400,1369,0
0,900,0
625,81,0
16,100,0
361,324,0
16,64,0
484,0,0
1,169,0
49,256,0
484,9,0
625,0,0
1,121,0
100,169,0
2809,0,0
2500,9,0
324,36,0
441,49,0
1369,25,0
196,400,0
9,841,0
441,289,0
361,49,0
729,64,0
961,4,0
144,16,0
100,1,0
729,196,0
169,169,0
676,9,0
144,9,0
36,144,0
1089,144,0
3969,4,0
676,0,0
25,16,0
2304,16,0
3481,36,0
9,196,0
225,121,0
100,16,0
81,64,0
2401,676,0
441,841,0
729,225,0
1,121,0
1764,361,0
4,289,0
1600,81,0
289,121,0
9,289,0
1089,256,0
1296,225,0
25,441,0
16,625,0
1600,256,0
1521,121,0
1,324,0
225,324,0
3481,16,0
2025,0,0
25,64,0
256,100,0
729,9,0
361,100,0
1849,289,0
0,36,0
484,4,0
169,36,0
196,169,0
961,36,0
1024,1,0
9,81,0
81,121,0
1764,36,0
484,64,0
4,324,0
841,256,0
2704,36,0
144,36,0
64,100,0
484,1,0
484,100,0
400,4,0
256,144,0
625,196,0
64,225,0
1681,576,0
324,676,0
1024,289,0
361,196,0
25,361,0
441,196,0
1936,25,0
121,64,0
81,169,0
400,81,0
1024,25,0
25,121,0
16,225,0
2304,64,0
2916,25,0
1,225,0
16,289,0
1681,36,0
1764,0,0
4,36,0
49,100,0
576,100,0
324,289,0
2601,361,0
100,100,0
625,64,0
16,324,0
324,400,0
361,100,0
625,49,0
64,289,0
16,289,0
841,49,0
529,64,0
1,289,0
361,196,0
2601,16,0
1296,16,0
225,121,0
841,49,0
961,4,0
1,64,0
121,100,0
361,16,0
441,81,0
196,529,0
400,441,0
81,36,0
64,25,0
144,144,0
16,81,0
1225,9,0
576,121,0
81,289,0
1156,49,0
2209,1,0
196,100,0
0,289,0
900,9,0
1156,4,0
16,169,0
169,289,0
36,64,0
49,256,0
1024,1089,0
64,576,0
484,25,0
9,144,0
361,729,0
64,324,0
961,25,0
121,100,0
16,121,0
729,0,0
841,9,0
16,441,0
25,576,0
729,25,0
225,0,0
16,81,0
144,25,0
1444,100,0
625,36,0
36,64,0
289,36,0
576,0,0
16,81,0
0,256,0
484,100,0
441,169,0
64,729,0
64,576,0
400,25,0
361,16,0
1,324,0
196,225,0
1024,36,0
144,121,0
16,196,0
225,9,0
784,4,0
25,36,0
1,36,0
324,0,0
196,100,0
121,784,0
25,676,0
361,100,0
64,196,0
225,841,0
0,441,0
625,9,0
324,36,0
9,225,0
256,64,0
841,16,0
256,289,0
169,529,0
1369,81,0
1089,9,0
0,169,0
16,49,0
625,121,0
900,100,0
81,196,0
81,324,0
484,4,0
81,4,0
144,225,0
16,121,0
25,64,0
169,676,0
289,1444,0
100,441,0
324,144,0
16,625,0
16,676,0
441,49,0
529,16,0
64,289,0
441,169,0
1521,1,0
484,64,0
16,324,0
361,49,0
729,64,0
25,16,0
9,9,0
196,0,0
169,9,0
81,484,0
25,576,0
441,81,0
324,49,0
1,441,0
64,225,0
729,4,0
256,64,0
0,289,0
144,36,0
529,9,0
36,64,0
0,169,0
784,9,0
1296,100,0
64,100,0
0,484,0
576,36,0
729,1,0
25,441,0
36,361,0
289,4,0
9,64,0
441,1156,0
1,841,0
484,144,0
16,400,0
36,676,0
289,36,0
576,1,0
9,225,0
1,441,0
400,81,0
225,81,0
4,625,0
64,441,0
900,9,0
400,9,0
49,144,0
361,9,0
625,144,0
16,81,0
0,9,0
529,36,0
576,64,0
4,484,0
25,529,0
324,100,0
256,100,0
25,576,0
0,400,0
400,36,0
144,144,0
4,441,0
625,49,0
1681,16,0
256,81,0
1,324,0
576,49,0
1024,0,0
16,256,0
1,441,0
324,49,0
49,25,0
324,441,0
25,361,0
400,16,0
16,144,0
324,784,0
0,225,0
400,0,0
25,25,0
0,100,0
484,0,0
784,0,0
36,324,0
9,484,0
484,64,0
484,25,0
25,324,0
144,169,0
1024,16,0
529,16,0
25,64,0
169,25,0
484,36,0
36,4,0
0,225,0
256,144,0
324,225,0
49,961,0
64,841,0
400,49,0
529,16,0
1,441,0
25,324,0
576,4,0
289,25,0
25,100,0
529,100,0
1024,16,0
81,225,0
9,529,0
196,225,0
196,100,0
49,400,0
9,324,0
400,25,0
121,121,0
196,841,0
0,529,0
784,4,0
484,0,0
49,121,0
324,49,0
729,0,0
49,169,0
25,441,0
144,121,0
324,0,0
1,36,0
0,49,0
961,36,0
1369,4,0
121,529,0
49,784,0
676,16,0
361,0,0
1,256,0
121,324,0
441,100,0
1,289,0
169,324,0
121,16,0
441,0,0
4,324,0
64,676,0
196,121,0
225,100,0
4,529,0
36,361,0
676,4,0
256,16,0
16,289,0
400,144,0
900,0,0
49,25,0
9,169,0
361,25,0
625,1,0
9,121,0
1,196,0
400,9,0
100,9,0
256,324,0
36,324,0
400,9,0
225,16,0
0,324,0
100,144,0
676,1,0
144,64,0
16,400,0
961,100,0
1600,16,0
121,441,0
0,676,0
676,49,0
900,0,0
9,289,0
1,529,0
196,81,0
4,225,0
484,900,0
0,361,0
484,4,0
49,144,0
16,729,0
289,324,0
729,81,0
36,324,0
1,289,0
529,1,0
484,9,0
9,256,0
49,225,0
676,16,0
256,36,0
1,25,0
196,0,0
729,169,0
121,36,0
1,49,0
289,4,0
361,1,0
16,144,0
25,484,0
324,196,0
324,169,0
16,576,0
0,484,0
529,64,0
289,49,0
1,225,0
49,144,0
529,9,0
81,100,0
4,289,0
784,49,0
1521,4,0
121,441,0
9,1089,0
400,169,0
841,4,0
9,256,0
0,400,0
324,25,0
1,121,0
625,729,0
9,324,0
625,1,0
225,64,0
4,169,0
256,0,0
441,25,0
0,144,0
9,361,0
324,25,0
324,1,0
9,256,0
9,289,0
1089,4,0
961,81,0
81,49,0
256,144,0
961,9,0
324,36,0
49,324,0
441,196,0
441,169,0
100,900,0
441,1156,0
16,225,0
100,81,0
225,576,0
121,676,0
441,121,0
441,121,0
9,361,0
324,64,0
1444,16,0
484,9,0
16,121,0
441,1,0
1369,100,0
676,1,0
784,121,0
1936,36,0
196,144,0
1849,1369,0
2704,484,1
121,529,1
256,729,1
169,1,1
1849,100,1
7921,25,1
4356,256,1
289,1156,1
49,324,1
1024,36,1
196,225,1
1296,900,1
4,81,1
1024,64,1
625,1225,1
1849,784,1
1764,9,1
3249,256,1
5625,2116,1
2025,2116,1
16384,841,1
8464,1024,1
6724,1521,1
9409,81,1
324,441,1
4,9,1
19600,81,1
6724,441,1
13689,1089,1
15376,1,1
625,225,1
3481,64,1
5041,361,1
6400,9,1
22201,25,1
729,49,1
4356,484,1
2809,1296,1
6889,1369,1
28900,1681,1
18496,2116,1
841,1024,1
4900,1,1
28224,196,1
2209,4,1
23409,25,1
17689,289,1
961,49,1
8464,1225,1
16641,225,1
576,361,1
13689,16,1
25,841,1
3364,225,1
1296,64,1
1,25,1
8464,576,1
529,169,1
7225,9,1
3136,25,1
196,121,1
18225,81,1
34969,256,1
784,324,1
24649,1600,1
16,625,1
2401,900,1
8836,1764,1
6084,484,1
5776,36,1
5329,36,1
625,25,1
324,4,1
10609,49,1
361,225,1
19881,576,1
25,81,1
16129,49,1
196,841,1
2025,576,1
18496,441,1
46656,1681,1
2500,144,1
576,81,1
7569,64,1
4225,225,1
9604,484,1
5329,121,1
1681,324,1
2401,2916,1
16384,2809,1
576,169,1
7225,4,1
14161,144,1
27889,25,1
2304,4,1
14641,441,1
121,576,1
9,9,1
10000,49,1
484,36,1
5041,361,1
4356,49,1
36100,9,1
841,64,1
9801,81,1
841,16,1
3249,36,1
33124,81,1
42849,900,1
9801,1521,1
17956,1849,1
21904,2116,1
19600,841,1
9801,16,1
9216,1,1
1089,25,1
5041,1,1
45796,16,1
1156,289,1
18225,144,1
784,100,1
21025,256,1
2916,9,1
6724,225,1
74529,64,1
148225,196,1
2304,841,1
9025,576,1
1521,9,1
6400,1,1
83521,361,1
9409,841,1
28561,729,1
1024,625,1
15876,784,1
1849,361,1
18496,1,1
9025,49,1
40401,324,1
64,121,1
2916,100,1
8836,361,1
3136,144,1
22500,9,1
13689,4,1
2304,81,1
1681,49,1
58564,81,1
25600,289,1
49,100,1
8836,25,1
11664,25,1
27225,324,1
56169,1156,1
484,900,1
7225,196,1
8281,81,1
3481,784,1
18225,1369,1
4761,1521,1
16384,961,1
2601,1,1
16129,81,1
1296,729,1
2500,2809,1
21316,1089,1
53361,144,1
784,484,1
20164,729,1
13689,16,1
42849,81,1
8100,49,1
36481,625,1
361,625,1
1089,729,1
57121,729,1
7225,256,1
21609,100,1
100,576,1
23716,1521,1
361,1681,1
8464,1521,1
3844,1089,1
14884,289,1
4225,0,1
11881,64,1
3721,961,1
0,529,1
91204,64,1
112225,784,1
12321,1296,1
7569,961,1
35721,81,1
4489,289,1
6241,900,1
361,400,1
2809,100,1
42436,196,1
91204,256,1
2601,81,1
2500,9,1
18496,9,1
24964,625,1
1681,1764,1
2704,841,1
1600,9,1
7056,576,1
42849,625,1
729,841,1
16900,784,1
441,256,1
7056,361,1
27225,1369,1
42436,961,1
6889,121,1
11025,196,1
30625,841,1
21609,529,1
26569,25,1
21316,9,1
15625,144,1
7921,25,1
14641,16,1
841,361,1
21025,225,1
625,81,1
18496,400,1
2025,4,1
2025,36,1
7921,324,1
43681,2809,1
6889,3025,1
36,49,1
24336,1764,1
47524,2401,1
10816,576,1
5929,144,1
12321,4,1
1156,961,1
25921,1024,1
1521,361,1
5776,1156,1
729,4489,1
7225,3364,1
2500,9,1
6561,225,1
4900,64,1
9216,169,1
1521,25,1
4096,121,1
49,25,1
2304,49,1
16129,1,1
729,196,1
4096,484,1
36,289,1
3025,1600,1
625,4489,1
1444,1849,1
4624,0,1
2916,4,1
9409,169,1
10201,49,1
2304,1225,1
4900,729,1
2809,16,1
4356,0,1
0,9,1
4761,144,1
23409,900,1
2601,361,1
6400,121,1
100,784,1
2809,361,1
9801,729,1
27556,1444,1
144,64,1
6084,1369,1
14641,400,1
61009,289,1
17956,1225,1
5776,1024,1
15625,529,1
25,1369,1
36864,2116,1
27889,361,1
676,4,1
3481,484,1
10201,625,1
324,1,1
3844,169,1
3721,1,1
10201,121,1
289,1225,1
6241,576,1
841,1,1
6084,9,1
53361,4,1
47961,484,1
2916,1296,1
0,225,1
256,144,1
4761,2401,1
12321,3364,1
25,625,1
2601,196,1
9409,961,1
29584,225,1
1444,441,1
3481,169,1
0,289,1
9,484,1
6400,169,1
784,289,1
900,256,1
7225,36,1
19321,121,1
225,169,1
12769,441,1
576,25,1
10201,289,1
2304,256,1
7921,1024,1
3481,144,1
3600,100,1
7569,441,1
3136,81,1
6889,0,1
1369,900,1
8649,2704,1
2116,400,1
4761,169,1
169,16,1
9216,169,1
3136,100,1
1024,289,1
49,1600,1
64,961,1
15876,64,1
16384,289,1
289,1,1
4,16,1
24336,625,1
17424,169,1
441,576,1
8649,1296,1
38025,529,1
1369,676,1
16900,361,1
1156,25,1
5329,0,1
841,1156,1
7396,961,1
1936,1,1
9604,9,1
729,361,1
784,1,1
5625,784,1
169,256,1
6084,9,1
900,49,1
1369,144,1
1936,196,1
13225,784,1
1024,144,1
1,36,1
16129,729,1
16129,841,1
4489,400,1
11449,3364,1
1600,7396,1
2601,1681,1
7569,81,1
6889,36,1
1936,49,1
484,0,1
6561,1,1
196,441,1
6724,484,1
36,36,1
9025,289,1
25,4,1
4096,0,1
10816,784,1
48400,784,1
7396,16,1
196,169,1
12544,64,1
11664,9,1
0,289,1
81,169,1
2304,196,1
7921,1681,1
38416,1296,1
6889,1,1
64,64,1
8100,529,1
16641,729,1
121,9,1
5929,4,1
16,625,1
9,576,1
7396,100,1
2809,441,1
1296,961,1
676,529,1
19600,484,1
6241,1296,1
625,841,1
324,1,1
2401,16,1
4096,576,1
12769,484,1
9,81,1
2304,36,1
225,225,1
625,100,1
2209,9,1
3025,64,1
49,484,1
1,169,1
64,4,1
100,324,1
81,784,1
1369,25,1
2500,484,1
9,121,1
225,256,1
225,256,1
676,256,1
36,225,1
169,529,1
1089,196,1
225,961,1
9,1521,1
361,100,1
1681,16,1
400,576,1
36,2025,1
576,576,1
441,36,1
36,196,1
64,100,1
49,25,1
16,121,1
1,25,1
324,529,1
1156,1369,1
324,484,1
81,361,1
900,784,1
1156,225,1
169,676,1
169,3025,1
900,1764,1
484,1024,1
1,2500,2
1,2916,2
169,1156,2
4,196,2
324,9,2
0,49,2
256,169,2
9,49,2
9,1024,2
529,529,2
1764,256,2
625,1764,2
256,1521,2
1296,196,2
1225,1369,2
4,144,2
4,25,2
81,676,2
196,484,2
1444,25,2
100,64,2
484,1156,2
36,5041,2
144,5041,2
81,441,2
576,64,2
49,324,2
9,961,2
484,4,2
676,225,2
121,64,2
324,0,2
1296,121,2
576,1024,2
1,1369,2
36,121,2
256,441,2
1,729,2
49,196,2
100,100,2
256,169,2
0,1,2
0,36,2
324,1369,2
225,1024,2
49,4,2
16,400,2
400,1156,2
361,2601,2
9,3025,2
256,2401,2
1089,1849,2
484,2304,2
256,2401,2
1225,324,2
1600,144,2
121,289,2
0,484,2
289,169,2
169,1089,2
81,5776,2
4,3136,2
529,169,2
1,529,2
441,2500,2
49,900,2
1225,0,2
361,169,2
36,900,2
289,36,2
324,784,2
49,400,2
121,324,2
144,1681,2
225,576,2
4,289,2
64,1764,2
1089,961,2
676,4,2
9,49,2
64,2304,2
400,8649,2
9,5625,2
16,625,2
289,169,2
784,1681,2
25,5041,2
1,5041,2
529,2116,2
676,900,2
4,1521,2
16,3249,2
784,4225,2
400,1849,2
9,9,2
25,529,2
400,144,2
0,1521,2
100,121,2
196,625,2
625,361,2
25,841,2
81,4356,2
1225,3249,2
529,1024,2
169,676,2
25,361,2
676,49,2
196,625,2
100,256,2
0,64,2
196,0,2
9,729,2
196,1521,2
81,81,2
441,361,2
0,256,2
4,361,2
1936,841,2
3136,196,2
676,256,2
529,784,2
2304,100,2
1444,0,2
36,81,2
25,36,2
121,49,2
324,961,2
1369,2601,2
64,576,2
49,529,2
289,784,2
361,100,2
289,4,2
900,289,2
144,1521,2
400,1089,2
1681,9,2
676,961,2
25,576,2
576,100,2
1681,196,2
225,2116,2
16,1600,2
196,144,2
256,144,2
169,961,2
256,1024,2
196,196,2
49,25,2
900,256,2
225,441,2
729,289,2
676,841,2
81,1936,2
676,1156,2
1764,289,2
196,484,2
100,1296,2
25,841,2
196,49,2
36,1,2
25,0,2
1089,81,2
1521,25,2
9,144,2
0,4,2
441,1156,2
1,900,2
676,64,2
0,225,2
1225,196,2
256,676,2
25,729,2
289,196,2
1024,0,2
81,25,2
4,169,2
625,81,2
576,196,2
9,1369,2
144,1296,2
1444,400,2
729,100,2
1,144,2
121,36,2
1156,0,2
625,16,2
196,4,2
900,324,2
841,144,2
36,361,2
169,2209,2
256,1936,2
324,1296,2
169,1225,2
361,225,2
36,9,2
81,36,2
9,576,2
64,225,2
625,36,2
196,16,2
49,81,2
784,1,2
1156,361,2
9,64,2
64,64,2
289,64,2
625,81,2
100,121,2
729,25,2
25,16,2
4,1444,2
256,4900,2
25,2025,2
1089,0,2
361,100,2
4,25,2
196,4,2
900,196,2
144,2116,2
25,2916,2
625,1225,2
841,729,2
81,729,2
144,25,2
1681,400,2
1600,289,2
169,121,2
100,324,2
529,49,2
225,400,2
1,169,2
196,144,2
441,49,2
16,225,2
169,1089,2
81,400,2
121,0,2
81,4,2
16,0,2
441,9,2
225,81,2
9,81,2
121,576,2
961,1849,2
256,1521,2
16,324,2
529,0,2
961,4,2
25,441,2
1,961,2
289,225,2
144,36,2
169,9,2
25,529,2
529,441,2
169,1089,2
225,3364,2
9,1681,2
400,25,2
49,25,2
49,9,2
121,0,2
841,36,2
169,225,2
49,361,2
900,25,2
1225,1,2
81,9,2
81,225,2
1764,1681,2
1849,400,2
64,576,2
0,1369,2
169,841,2
16,841,2
400,529,2
4,0,2
400,529,2
1,324,2
121,9,2
225,169,2
576,1024,2
16,289,2
100,289,2
1156,676,2
576,576,2
0,484,2
81,81,2
900,16,2
256,169,2
0,576,2
196,1369,2
441,1225,2
0,576,2
16,576,2
289,324,2
289,1,2
25,1,2
4,196,2
324,289,2
81,324,2
81,625,2
36,576,2
784,225,2
225,100,2
1,64,2
81,64,2
441,169,2
49,484,2
9,361,2
900,25,2
1296,256,2
36,49,2
0,900,2
784,576,2
961,400,2
16,529,2
25,1,2
400,1024,2
0,576,2
484,144,2
1,784,2
784,144,2
196,1444,2
1,3481,2
484,1225,2
1024,441,2
121,1600,2
9,2304,2
289,1024,2
169,961,2
25,1600,2
1,484,2
529,36,2
484,576,2
64,1764,2
225,400,2
441,529,2
4,2601,2
25,3481,2
256,1849,2
484,25,2
9,256,2
49,81,2
196,16,2
144,100,2
81,1936,2
16,1849,2
361,400,2
169,121,2
1,25,2
361,400,2
900,1681,2
16,324,2
49,361,2
484,841,2
1600,900,2
196,1849,2
4,1521,2
441,361,2
225,361,2
196,576,2
64,36,2
289,1369,2
64,144,2
121,841,2
16,1296,2
576,625,2
121,841,2
4,900,2
576,81,2
1296,1600,2
169,169,2
25,361,2
529,576,2
441,441,2
0,576,2
16,169,2
784,169,2
900,529,2
225,361,2
361,49,2
841,256,2
144,1444,2
4,2601,2
49,2116,2
64,576,2
289,36,2
484,81,2
25,676,2
441,289,2
289,289,2
729,1681,2
1296,1369,2
256,625,2
4,289,2
324,144,2
1369,400,2
324,1936,2
9,3249,2
16,3136,2
16,2304,2
225,841,2
121,49,2
169,2116,2
196,1521,2
16,1,2
25,169,2
729,9,2
289,225,2
1,529,2
81,16,2
484,121,2
16,25,2
49,1,2
100,64,2
441,16,2
9,196,2
9,441,2
1089,49,2
1600,16,2
169,361,2
49,400,2
841,1,2
625,9,2
16,81,2
64,81,2
289,1,2
4,144,2
225,576,2
36,169,2
361,16,2
1,361,2
36,784,2
256,256,2
400,121,2
1,529,2
49,529,0
576,49,0
225,49,0
9,324,0
324,81,0
1024,100,0
225,81,0
25,0,0
400,1,0
484,9,0
0,64,0
0,256,0
400,49,0
289,121,0
49,841,0
16,784,0
361,169,0
144,225,0
25,676,0
9,289,0
324,9,0
49,81,0
9,196,0
961,1,0
1600,36,0
169,49,0
1,169,0
625,0,0
961,0,0
9,361,0
1,676,0
196,169,0
0,361,0
484,1225,0
0,625,0
841,36,0
121,144,0
100,676,0
49,144,0
484,1,0
25,25,0
0,64,0
484,4,0
625,9,0
16,225,0
25,361,0
576,81,0
324,225,0
4,784,0
400,324,0
2116,16,0
961,36,0
81,16,0
361,16,0
529,0,0
49,16,0
144,25,0
361,1,0
529,4,0
81,324,0
64,361,0
400,81,0
196,144,0
16,625,0
324,576,0
1681,225,0
144,400,0
64,1024,0
529,484,0
1521,9,0
0,9,0
225,25,0
169,0,0
16,1,0
1089,64,0
121,121,0
1089,25,0
121,81,0
1089,400,0
25,324,0
1369,49,0
400,25,0
0,16,0
676,1,0
1225,4,0
0,196,0
36,441,0
841,169,0
1089,49,0
0,225,0
144,256,0
3249,4,0
2704,1,0
81,100,0
36,81,0
841,49,0
144,256,0
36,4,0
225,289,0
361,400,0
625,900,0
1156,1444,0
100,961,0
400,441,0
169,529,0
64,441,0
676,121,0
361,81,0
16,289,0
441,256,0
2304,49,0
256,81,0
36,169,0
729,9,0
1849,100,0
1,64,0
100,4,0
576,16,0
289,25,0
576,196,0
144,256,0
841,100,0
361,121,0
100,441,0
64,441,0
1225,121,0
100,196,0
169,400,0
144,144,0
729,1,0
1,25,0
4,64,0
2025,4,0
2916,49,0
25,25,0
9,196,0
1369,49,0
1444,25,0
25,289,0
4,441,0
361,256,0
225,441,0
2209,841,0
36,441,0
900,100,0
4,196,0
484,324,0
289,64,0
1024,1,0
0,81,0
0,100,0
961,25,0
484,196,0
36,0,0
100,121,0
2025,144,0
841,289,0
25,484,0
729,225,0
1936,0,0
324,9,0
9,4,0
576,16,0
484,64,0
144,324,0
121,324,0
529,81,0
361,196,0
100,900,0
16,729,0
441,144,0
121,196,0
9,441,0
484,196,0
1600,25,0
169,144,0
4,256,0
729,25,0
1225,1,0
0,144,0
121,225,0
49,9,0
25,64,0
900,625,0
64,324,0
625,4,0
100,81,0
196,625,0
25,256,0
841,0,0
196,25,0
25,169,0
625,9,0
841,0,0
49,144,0
36,289,0
729,16,0
484,1,0
1,196,0
100,100,0
1369,81,0
1089,81,0
169,81,0
324,196,0
576,16,0
36,49,0
9,289,0
144,144,0
169,121,0
100,676,0
100,841,0
256,169,0
289,64,0
25,361,0
0,225,0
484,1,0
324,25,0
36,324,0
441,100,0
729,9,0
16,36,0
4,324,0
625,64,0
1156,9,0
25,324,0
36,484,0
100,81,0
25,100,0
324,529,0
36,361,0
441,36,0
169,64,0
1,324,0
169,81,0
729,4,0
64,25,0
49,81,0
64,36,0
361,64,0
16,225,0
36,625,0
1369,81,0
1681,9,0
169,361,0
100,441,0
1024,4,0
784,4,0
64,196,0
169,225,0
400,81,0
25,484,0
361,1225,0
36,441,0
400,81,0
4,324,0
64,529,0
196,64,0
225,4,0
9,144,0
9,121,0
676,0,0
361,25,0
9,256,0
324,100,0
1225,1,0
289,16,0
1,144,0
324,16,0
625,0,0
9,81,0
0,169,0
484,25,0
225,64,0
169,625,0
36,529,0
400,36,0
144,64,0
49,400,0
4,196,0
361,9,0
121,100,0
36,256,0
1024,9,0
1681,4,0
169,121,0
1,324,0
676,1,0
961,9,0
4,196,0
0,400,0
361,100,0
1,361,0
484,1225,0
25,529,0
289,16,0
0,144,0
169,576,0
144,144,0
784,0,0
64,64,0
1,144,0
529,0,0
576,4,0
0,289,0
16,289,0
841,4,0
484,9,0
49,225,0
361,100,0
1156,36,0
361,16,0
36,64,0
400,36,0
576,4,0
0,100,0
64,144,0
196,1,0
225,9,0
36,484,0
4,625,0
484,144,0
361,225,0
1,676,0
100,324,0
625,16,0
121,100,0
1,289,0
576,25,0
1156,1,0
49,121,0
16,324,0
400,16,0
784,0,0
4,324,0
4,529,0
196,144,0
0,289,0
529,961,0
16,361,0
484,1,0
169,25,0
0,169,0
144,16,0
441,0,0
16,144,0
1,256,0
400,25,0
625,36,0
9,441,0
64,361,0
1369,4,0
1369,25,0
169,121,0
196,196,0
841,0,0
256,0,0
1,196,0
225,289,0
441,100,0
25,289,0
256,576,0
36,289,0
81,100,0
256,169,0
400,49,0
25,9,0
121,0,0
4,400,0
324,900,0
1225,400,0
361,324,0
25,289,0
529,0,0
1024,144,0
49,9,0
0,4,0
576,1,0
484,49,0
25,361,0
0,400,0
784,9,2
361,25,2
81,289,2
0,1089,2
529,1156,2
100,1600,2
4,1369,2
121,289,2
484,49,2
81,289,2
36,256,2
625,121,2
576,576,2
25,256,2
9,16,2
1024,121,2
1225,324,2
121,169,2
121,1521,2
289,961,2
144,729,2
784,1764,2
25,2025,2
1225,1600,2
484,1296,2
100,9,2
625,1225,2
576,1225,2
0,49,2
1,225,2
784,625,2
625,625,2
16,484,2
256,225,2
841,36,2
64,1024,2
36,1369,2
81,1225,2
256,1849,2
1,1089,2
64,121,2
81,1,2
100,484,2
49,2209,2
4,1600,2
676,784,2
324,2809,2
16,6084,2
0,4225,2
256,1936,2
64,841,2
25,16,2
81,1225,2
484,576,2
81,256,2
100,2916,2
1764,3969,2
2601,1296,2
289,4,2
0,841,2
225,1849,2
289,1156,2
1,25,2
9,256,2
361,196,2
0,529,2
400,1225,2
4,64,2
784,36,2
324,484,2
121,2116,2
841,2025,2
784,1600,2
0,625,2
100,36,2
49,729,2
9,324,2
81,25,2
100,169,2
1600,144,2
1156,400,2
196,1089,2
441,900,2
529,169,2
25,121,2
100,361,2
576,49,2
729,225,2
81,9,2
100,9,2
625,25,2
529,625,2
169,1444,2
100,36,2
256,900,2
1,1444,2
225,729,2
729,100,2
3025,36,2
256,225,2
9,289,2
1600,1156,2
2601,3249,2
4,3600,2
49,961,2
576,225,2
1,900,2
2304,361,2
676,361,2
400,961,2
0,16,2
900,1600,2
64,2116,2
1936,2401,2
529,2704,2
441,1225,2
2809,400,2
2209,324,2
4,256,2
0,25,2
900,169,2
324,144,2
121,81,2
64,196,2
2025,16,2
841,441,2
9,196,2
400,9,2
529,256,2
576,900,2
1444,961,2
81,576,2
625,361,2
64,441,2
81,144,2
576,36,2
289,1,2
64,400,2
225,361,2
1849,4,2
361,1,2
0,81,2
1225,9,2
2916,9,2
144,49,2
144,81,2
144,64,2
49,196,2
625,1,2
49,16,2
1024,16,2
9,1,2
2209,841,2
400,1681,2
729,529,2
256,0,2
0,529,2
841,1681,2
1936,1024,2
121,0,2
0,529,2
900,576,2
1225,484,2
9,484,2
81,529,2
2601,196,2
2025,4,2
1,25,2
9,16,2
1089,64,2
361,900,2
16,256,2
256,256,2
576,1225,2
441,3721,2
1681,9216,2
25,9409,2
484,3721,2
256,400,2
289,0,2
729,49,2
625,49,2
64,25,2
36,81,2
1296,49,2
196,169,2
36,0,2
441,25,2
1849,484,2
361,441,2
64,25,2
961,36,2
900,576,2
64,2209,2
81,2401,2
676,625,2
529,49,2
144,529,2
81,1681,2
361,1089,2
81,289,2
196,100,2
0,16,2
361,256,2
25,4,2
1,576,2
2209,1369,2
4900,1296,2
729,324,2
9,441,2
1024,1681,2
1296,784,2
0,9,2
25,225,2
196,529,2
81,841,2
1521,900,2
225,900,2
121,1156,2
121,1024,2
576,784,2
121,361,2
900,36,2
16,9,2
16,0,2
529,64,2
729,225,2
16,1156,2
100,2116,2
1225,841,2
676,36,2
49,1296,2
484,900,2
1600,256,2
484,144,2
49,324,2
576,900,2
484,144,2
121,961,2
256,3249,2
225,2304,2
400,1225,2
4,1024,2
4,169,2
484,25,2
256,16,2
1,144,2
441,169,2
1681,576,2
400,36,2
81,1024,2
1369,1225,2
1764,169,2
0,25,2
289,25,2
4,529,2
1,729,2
676,225,2
64,0,2
576,49,2
25,900,2
576,1156,2
16,4,2
225,3844,2
16,4761,2
144,256,2
144,1156,2
841,3969,2
169,4761,2
81,2025,2
961,100,2
1296,81,2
225,784,2
289,676,2
1764,289,2
1225,256,2
36,81,2
196,4,2
1024,361,2
144,1369,2
36,1156,2
100,289,2
225,0,2
49,1764,2
36,4489,2
529,1296,2
625,16,2
9,100,2
4,81,2
400,1,2
49,81,2
196,1225,2
36,2209,2
1156,1089,2
400,576,2
0,169,2
256,100,2
1024,9,2
196,1681,2
49,2025,2
289,100,2
4,361,2
729,529,2
169,256,2
676,121,2
676,1,2
16,121,2
121,36,2
625,1,2
169,625,2
16,2116,2
576,1521,2
841,529,2
9,1,2
1,441,2
900,324,2
1296,1,2
81,900,2
121,1764,2
1521,225,2
841,100,2
144,441,2
289,256,2
4,49,2
441,324,2
900,1521,2
1,784,2
256,676,2
36,1444,2
49,1296,2
576,324,2
1156,36,2
81,324,2
49,81,2
729,121,2
529,961,2
36,2025,2
225,1225,2
900,169,2
289,289,2
64,576,2
784,0,2
1225,324,2
81,0,2
16,324,2
144,64,2
196,49,2
9,0,2
4,324,2
625,529,2
256,625,2
36,961,2
16,256,2
784,81,2
289,400,2
25,961,2
676,1849,2
1296,900,2
36,1,2
49,81,2
441,0,2
841,25,2
0,576,2
64,784,2
100,529,2
1,1089,2
361,1936,2
0,784,2
529,49,2
0,121,2
484,484,2
1,169,2
841,9,2
169,144,2
1,324,2
900,225,2
2304,289,2
576,1024,2
121,841,2
0,81,2
1089,64,2
1444,576,2
1,121,1
3136,196,1
5776,4,1
5184,1600,1
6241,1681,1
5184,961,1
625,1764,1
225,2401,1
49,784,1
324,121,1
3721,1296,1
2601,625,1
1,49,1
81,25,1
1089,1,1
625,36,1
3600,196,1
7744,225,1
1521,9,1
25,1,1
225,324,1
1681,324,1
256,225,1
625,676,1
64,225,1
5776,1156,1
8100,3969,1
7569,2116,1
5776,841,1
36,1225,1
16641,529,1
42849,9,1
21904,169,1
1764,1225,1
169,121,1
289,64,1
8836,25,1
13924,361,1
4761,0,1
144,256,1
841,81,1
900,1225,1
3025,441,1
19881,100,1
2809,1089,1
625,1849,1
7569,25,1
13456,324,1
529,121,1
3249,1089,1
729,625,1
256,1521,1
3721,4225,1
784,2916,1
3249,484,1
441,400,1
3481,576,1
1296,1,1
64,4,1
3025,729,1
1369,1296,1
2601,9,1
6889,324,1
361,9,1
2209,324,1
2209,16,1
3721,0,1
8464,121,1
6889,0,1
3136,1156,1
3025,1764,1
4624,1024,1
144,1444,1
6241,1600,1
5625,289,1
3481,36,1
14161,144,1
10000,25,1
2916,1521,1
16129,1444,1
1296,324,1
576,441,1
0,1296,1
676,441,1
10000,169,1
7056,1936,1
100,2601,1
3969,121,1
7225,324,1
13689,4,1
4761,289,1
2025,144,1
4096,256,1
25,1156,1
25,729,1
5776,1,1
2704,49,1
5625,900,1
4624,361,1
3136,1,1
5929,49,1
1936,169,1
16641,25,1
40401,169,1
12100,961,1
196,400,1
1369,64,1
729,49,1
7744,625,1
3969,1225,1
23104,25,1
64009,144,1
17956,4,1
1024,0,1
1024,576,1
169,144,1
5929,225,1
441,289,1
1681,625,1
4624,2916,1
23104,2809,1
1681,169,1
361,9,1
7744,961,1
9409,1296,1
121,100,1
625,36,1
11881,196,1
225,4,1
11236,169,1
3721,225,1
2401,400,1
2209,676,1
1681,0,1
1849,1024,1
36,900,1
900,16,1
4489,100,1
1024,2209,1
4096,1849,1
23104,1,1
12544,9,1
81,961,1
484,1600,1
4225,225,1
36,81,1
7056,100,1
3721,81,1
1296,529,1
5184,0,1
676,256,1
12996,64,1
23409,441,1
784,25,1
2916,121,1
1764,361,1
14400,529,1
2704,81,1
361,289,1
2401,25,1
1521,361,1
21316,900,1
6084,0,1
0,169,1
5929,361,1
12100,1764,1
400,1089,1
9409,1089,1
4,2916,1
3721,2500,1
81,676,1
676,324,1
5625,441,1
0,25,1
14161,225,1
14400,64,1
900,0,1
16,196,1
5476,121,1
3600,484,1
100,1089,1
4,16,1
100,16,1
2916,529,1
0,841,1
14161,1,1
12996,4,1
4,676,1
64,841,1
2809,81,1
441,121,1
256,256,1
4624,16,1
12100,361,1
729,1,1
10000,81,1
3136,169,1
30276,676,1
8100,1,1
81,196,1
625,1,1
4096,625,1
19600,4096,1
6400,3136,1
4624,841,1
3025,2025,1
2916,3721,1
361,576,1
841,169,1
6561,0,1
16129,484,1
9,81,1
11664,1,1
5329,169,1
81,121,1
361,49,1
2500,1,1
676,225,1
144,1,1
1936,1156,1
64,1089,1
8649,121,1
529,36,1
9216,225,1
7744,0,1
3249,441,1
8464,441,1
1089,729,1
16129,2916,1
22201,3136,1
324,625,1
2601,100,1
169,324,1
121,196,1
4096,1,1
1936,0,1
121,4,1
6724,81,1
16384,121,1
1764,225,1
1936,1444,1
529,1225,1
1024,1024,1
361,1936,1
961,900,1
9025,4,1
1156,25,1
12321,784,1
12544,121,1
25,400,1
2704,361,1
1024,0,1
3249,1,1
6889,100,1
25,9,1
10000,100,1
3249,49,1
0,64,1
1936,729,1
3364,784,1
3249,0,1
15876,144,1
1849,25,1
289,64,1
12769,121,1
17161,81,1
1156,196,1
25,729,1
576,1225,1
361,3249,1
6400,3249,1
3136,144,1
729,144,1
5625,121,1
5329,289,1
1225,64,1
7569,49,1
1600,625,1
144,961,1
49,25,1
529,4,1
1369,361,1
400,169,1
7056,1,1
2209,324,1
196,625,1
196,25,1
3481,49,1
25,196,1
729,841,1
1225,4,1
441,121,1
5329,289,1
6084,361,1
49,144,1
1296,100,1
0,196,1
484,64,1
3025,121,1
400,4,1
3844,81,1
1600,49,1
13456,100,1
1936,900,1
25,2704,1
7225,484,1
8649,1,1
144,529,1
100,961,1
7744,324,1
2500,1089,1
3364,3025,1
576,625,1
3249,36,1
484,121,1
17689,729,1
6724,49,1
196,25,1
2304,841,1
3025,676,1
4,49,1
16,529,1
1681,49,1
841,4,1
256,144,1
2116,1,1
1849,484,1
6561,256,1
21316,225,1
13456,324,1
1600,49,1
2601,576,1
4489,625,1
441,324,1
3844,2209,1
2209,1521,1
16900,1681,1
2809,2704,1
81,784,1
1369,36,1
289,144,1
5184,49,1
1849,324,1
4489,400,1
3481,169,1
484,1764,1
121,484,1
441,121,1
484,1849,1
484,2809,1
7744,169,1
11449,100,1
2025,144,1
6724,729,1
2809,225,1
6084,784,1
961,2704,1
6241,576,1
1936,289,1
361,121,1
4,441,1
2704,1681,1
3025,1369,1
169,729,1
3249,256,1
961,4,1
324,4,1
4624,289,1
3136,100,1
3721,1369,1
16641,2209,1
5041,4,1
729,144,1
5184,36,1
7056,25,1
196,36,1
1849,676,1
4356,256,1
10404,900,1
7396,1849,1
64,256,1
2116,81,1
1,1024,1
484,961,1
18225,36,1
17689,81,1
576,784,1
81,361,1
2401,1,1
16,81,1
1600,529,1
5929,361,1
30625,324,1
8464,1089,1
4,784,1
16,25,1
729,25,1
9025,484,1
7921,49,1
16,361,1
0,36,1
8281,1521,1
13225,361,1
5329,289,1
6724,49,1
10404,361,1
100,289,1
6561,36,1
729,576,1
3721,841,1
2601,100,1
121,625,1
36,121,1
1444,784,1
29929,16,1
46225,100,1
13456,81,1
4225,169,1
5929,1,1
529,289,1
16641,1156,1
1024,169,1
9025,16,1
3025,441,1
4,1600,1
1156,144,1
2116,16,1
169,324,1
100,900,1
4624,324,1
7225,576,1
784,1681,1
1369,900,1
9216,4,1
1156,1,1
5625,49,1
1681,729,1
2025,784,1
529,81,1
361,961,1
529,144,1
1764,0,1
1024,225,1
2401,121,1
1156,81,1
3364,1,1
81,729,1
1764,289,1
484,36,1
441,25,1
576,1024,0
9,484,0
361,4,0
121,225,0
256,441,0
1024,9,0
2500,169,0
9,256,0
121,961,0
900,25,0
1681,0,0
49,841,0
25,961,0
484,100,0
16,400,0
841,1444,0
16,400,0
1089,0,0
81,25,0
4,81,0
576,64,0
784,121,0
1,225,0
0,625,0
841,81,0
289,81,0
121,784,0
49,729,0
2025,4,0
1156,81,0
100,4,0
441,36,0
900,121,0
9,0,0
25,49,0
484,64,0
484,324,0
256,1,0
324,144,0
196,196,0
121,900,0
225,2025,0
4,1156,0
576,225,0
144,256,0
4,484,0
676,36,0
1849,1,0
121,289,0
9,676,0
1089,36,0
2209,4,0
144,361,0
16,676,0
625,169,0
49,441,0
625,1521,0
49,625,0
441,0,0
0,36,0
625,529,0
4,169,0
324,1,0
4,64,0
64,196,0
361,1,0
729,9,0
36,289,0
144,441,0
1681,16,0
1225,0,0
169,121,0
676,25,0
2116,121,0
729,81,0
16,9,0
169,144,0
196,529,0
400,1225,0
784,841,0
49,25,0
256,9,0
64,121,0
25,196,0
676,1,0
576,1,0
25,196,0
676,196,0
2116,36,0
484,169,0
1,361,0
441,16,0
1089,36,0
0,81,0
256,361,0
64,49,0
36,25,0
529,529,0
144,729,0
441,256,0
169,400,0
196,1156,0
9,484,0
1024,4,0
361,9,0
4,16,0
441,0,0
1089,9,0
64,36,0
16,64,0
196,9,0
289,4,0
25,324,0
1,484,0
1521,1,0
1764,4,0
256,256,0
324,361,0
1444,1,0
576,0,0
9,400,0
196,529,0
324,256,0
144,961,0
529,1681,0
64,484,0
289,81,0
64,361,0
64,289,0
289,0,0
169,1,0
36,169,0
81,169,0
1156,25,0
324,196,0
9,529,0
576,144,0
1225,0,0
100,36,0
0,100,0
400,1,0
256,0,0
289,144,0
196,144,0
289,1,0
169,0,0
121,256,0
0,256,0
576,25,0
225,121,0
1,441,0
256,144,0
1024,36,0
144,441,0
25,625,0
1444,36,0
2116,1,0
81,196,0
1,256,0
784,49,0
961,196,0
0,49,0
9,169,0
144,16,0
100,289,0
961,1369,0
0,576,0
729,36,0
4,256,0
144,784,0
289,196,0
961,36,0
25,441,0
1,441,0
729,9,0
484,0,0
16,196,0
81,169,0
1369,16,0
324,100,0
9,289,0
400,25,0
1849,36,0
289,1,0
9,49,0
900,49,0
841,81,0
400,441,0
484,400,0
576,64,0
400,16,0
400,121,0
25,144,0
1089,25,0
169,25,0
100,81,0
1024,49,0
3364,9,0
64,81,0
121,225,0
1849,121,0
3025,49,0
36,169,0
225,400,0
529,225,0
576,25,0
6889,36,0
441,196,0
1936,81,0
400,0,0
4489,36,0
144,361,0
3481,196,0
81,81,0
81,361,0
5041,441,0
2916,100,0
196,64,0
25,361,0
4624,529,0
1600,256,0
169,324,0
576,441,0
5929,81,0
1936,1,0
9,25,0
900,121,0
1444,4,0
169,16,0
676,0,0
484,25,0
289,36,0
1936,121,0
1764,196,0
324,144,0
441,100,0
289,225,0
9,324,0
2025,225,0
484,256,0
121,324,0
361,121,0
2601,25,0
196,100,0
144,169,0
324,49,0
576,9,0
324,36,0
484,49,0
441,16,0
225,121,0
1089,361,0
361,100,0
1024,1,0
625,100,0
64,361,0
100,196,0
1681,81,0
225,144,0
81,144,0
361,16,0
1225,25,0
0,324,0
64,289,0
1936,4,0
3249,0,0
25,144,0
49,196,0
1444,25,0
1849,49,0
1,324,0
9,324,0
529,169,0
225,441,0
2209,729,0
16,324,0
900,100,0
16,169,0
529,121,0
289,1,0
1024,1,0
25,121,0
25,81,0
961,4,0
625,81,0
16,289,0
256,121,0
2304,36,0
576,196,0
1,289,0
676,36,0
2116,4,0
196,81,0
1,100,0
841,16,0
676,49,0
400,256,0
484,144,0
361,16,0
225,100,0
400,256,0
36,49,0
900,0,0
289,81,0
1,225,0
1156,36,0
3136,9,0
144,196,0
100,289,0
1089,25,0
2304,4,0
9,121,0
324,144,0
289,81,0
1,400,0
2116,961,0
529,400,0
676,81,0
36,289,0
961,529,0
1,144,0
1521,16,0
169,121,0
4,196,0
841,81,0
1600,81,0
16,256,0
1,121,0
1089,1,0
961,16,0
0,196,0
169,81,0
3025,0,0
2025,1,0
81,49,0
324,16,0
1156,16,0
25,196,0
144,256,0
225,81,0
400,100,0
484,400,0
625,289,0
361,49,0
529,100,0
196,256,0
64,81,0
784,4,0
324,100,0
16,256,0
576,36,0
2209,0,0
64,121,0
225,256,0
225,100,0
484,121,0
289,324,0
196,225,0
784,36,0
361,196,0
625,676,0
36,400,0
1681,49,0
784,81,0
16,100,0
169,1,0
1089,0,0
9,121,0
256,196,0
196,16,0
841,9,0
16,169,0
25,121,0
2401,1,0
3721,0,0
144,144,0
9,169,0
1849,49,0
1681,100,0
9,289,0
100,144,0
361,484,0
484,121,0
2116,676,0
25,169,0
400,81,0
225,256,0
576,144,0
361,1,0
729,25,0
25,225,0
1,121,0
1296,9,0
576,121,0
0,256,0
576,25,0
2809,0,0
625,100,0
1,225,0
484,49,0
900,64,0
25,324,0
121,289,0
484,36,0
169,100,0
900,484,0
324,256,0
729,16,0
441,81,0
64,225,0
64,49,0
1225,9,0
256,169,0
9,256,0
1681,49,0
3249,64,0
64,361,0
225,169,0
529,36,0
1296,36,0
49,64,0
225,64,0
256,4,0
1,256,0
1521,961,0
100,484,0
900,100,0
25,289,0
484,484,0
169,144,0
1764,64,0
196,256,0
0,169,0
784,0,0
1024,16,0
0,256,0
9,169,0
1296,25,0
841,121,0
0,225,0
256,36,0
2209,0,0
841,16,0
16,81,0
529,16,0
1024,64,0
9,441,0
196,400,0
361,49,0
400,81,0
484,361,0
484,225,0
324,25,0
324,49,0
144,144,0
1,16,0
841,1,0
169,49,0
9,144,0
961,4,0
2500,0,0
49,196,0
121,361,0
361,169,0
256,324,0
529,900,0
169,484,0
961,64,0
196,256,0
784,576,0
25,169,0
1444,0,0
529,25,0
1,49,0
324,0,0
1156,0,0
4,169,0
225,196,0
225,9,0
784,36,0
4,361,0
25,225,0
3249,0,0
3844,0,0
289,121,0
144,100,0
1681,9,0
729,64,0
16,196,0
49,64,0
324,81,0
484,484,0
1681,576,0
4,144,0
361,100,0
289,324,0
400,169,0
484,25,0
625,81,0
16,289,0
81,121,0
1444,64,0
324,256,0
9,256,0
729,4,0
2601,4,0
121,81,0
144,169,0
256,16,0
441,81,0
256,484,0
144,324,0
729,36,0
289,225,0
841,625,0
169,225,0
1089,9,0
576,49,0
16,81,0
169,0,0
1156,4,0
64,225,0
9,169,0
1521,9,0
3025,16,0
64,144,0
81,169,0
1225,9,0
2500,81,0
81,484,0
9,289,0
576,100,0
64,400,0
1936,676,0
64,196,0
784,49,0
1,256,0
576,256,0
196,25,0
1296,25,0
1,225,0
49,169,0
676,36,0
676,121,0
36,289,0
4,49,0
1296,0,0
484,64,0
4,169,0
484,25,0
2304,4,0
529,144,0
9,121,0
676,9,0
841,49,0
100,400,0
256,324,0
441,36,0
400,144,0
324,361,0
121,81,0
729,1,0
361,81,0
100,196,0
36,16,0
1024,4,0
81,169,0
25,196,0
1225,9,0
2601,25,0
9,361,0
169,324,0
324,64,0
49,289,0
1089,784,0
225,361,0
1024,25,0
144,169,0
676,529,0
4,121,0
1849,1,0
361,49,0
9,64,0
484,1,0
1444,1,0
9,225,0
49,225,0
625,16,0
841,64,0
1,324,0
49,144,0
2809,0,0
2500,4,0
169,100,0
256,64,0
1369,36,0
256,196,0
49,196,0
169,36,0
361,64,0
529,361,0
1024,289,0
144,36,0
400,81,0
256,400,0
196,256,0
529,64,0
400,225,0
4,361,0
441,36,0
2209,0,0
256,100,0
49,169,0
729,4,0
2209,0,0
16,196,0
169,256,0
289,64,0
100,196,0
1089,625,0
400,289,0
729,36,0
144,289,0
900,784,0
25,256,0
1369,16,0
324,81,0
64,64,0
121,16,0
676,25,0
0,64,0
1,121,0
2500,4,0
4225,4,0
324,169,0
49,196,0
2209,25,0
2116,81,0
25,361,0
36,196,0
441,100,0
196,441,0
1681,676,0
1,225,0
676,100,0
64,324,0
625,256,0
169,25,0
625,81,0
36,361,0
4,144,0
1024,9,0
625,64,0
1,196,0
324,9,0
2209,16,0
484,25,0
1,100,0
576,9,0
1444,49,0
16,576,0
36,484,0
576,64,0
324,100,0
625,441,0
400,256,0
529,36,0
400,121,0
144,225,0
0,36,0
1024,0,0
256,64,0
64,121,0
225,4,0
1296,4,0
36,169,0
16,169,0
1600,0,0
2809,0,0
25,256,0
49,324,0
441,144,0
4,441,0
1444,900,0
144,324,0
1024,9,0
64,144,0
576,361,0
81,100,0
1600,16,0
169,169,0
9,144,0
625,1,0
1024,16,0
1,225,0
16,121,0
841,4,0
625,36,0
9,196,0
