1	16	0
841	729	0
3136	2500	0
4489	4356	0
4096	4096	0
2809	2500	0
1521	1369	0
144	324	0
400	225	0
2500	2601	0
5184	5184	0
8100	6561	0
8836	7569	0
7056	6889	0
4096	3844	0
1681	1369	0
169	169	0
196	121	0
1296	1296	0
2704	2704	0
3844	3136	0
3721	3025	0
2025	2116	0
484	529	0
1	1	0
484	484	0
4624	4624	0
2304	1764	0
5625	6400	0
5184	4489	0
4096	2916	0
2601	3136	0
961	1681	0
49	36	0
144	289	0
841	324	0
1764	961	0
2116	2601	0
1600	1936	0
729	361	0
196	100	0
1	36	0
529	441	0
2025	2601	0
3481	2916	0
4489	3025	0
4489	4761	0
3249	4489	0
1444	1444	0
441	225	0
25	121	0
121	36	0
729	1681	0
1225	2500	0
1156	1296	0
784	841	0
361	841	0
16	81	0
144	400	0
784	900	0
1764	1444	0
2704	3844	0
2809	4900	0
2209	2401	0
1681	1296	0
900	1764	0
225	784	0
4	4	0
49	225	0
169	169	0
400	625	0
361	1296	0
81	289	0
0	25	0
25	1	0
121	0	0
484	625	0
961	1849	0
1156	1024	0
1156	1089	0
1089	2304	0
784	1521	0
441	169	0
256	121	0
121	441	0
1	49	0
25	144	0
49	49	0
49	4	0
64	49	0
0	81	0
100	121	0
196	324	0
121	25	0
169	81	0
484	361	0
729	1024	0
576	196	0
400	81	0
324	289	0
225	196	0
144	36	0
144	400	0
100	729	0
36	121	0
16	9	0
25	324	0
36	529	0
49	49	0
144	36	0
169	441	0
121	324	0
100	1	0
169	4	0
256	256	0
196	81	0
196	0	0
289	225	0
361	784	0
289	256	0
225	144	0
256	676	0
196	625	0
121	25	0
100	25	0
100	484	0
25	324	0
9	0	0
25	1	0
16	144	0
4	25	0
16	4	0
121	100	0
256	484	0
225	121	0
361	49	0
576	625	0
576	784	0
256	9	0
144	64	0
169	81	0
144	225	0
49	1	0
9	36	0
0	25	0
9	4	0
25	49	0
9	25	0
9	361	0
144	144	0
529	196	0
900	1296	0
961	1849	0
900	841	0
900	625	0
841	1089	0
400	625	0
144	36	0
81	25	0
25	144	0
1	4	0
36	324	0
49	100	0
36	0	0
4	9	0
9	0	0
144	441	0
361	784	0
625	256	0
841	361	0
961	1296	0
841	1296	0
784	576	0
729	625	0
361	784	0
25	121	0
4	36	0
16	0	0
49	0	0
100	441	0
64	841	0
1	4	0
121	256	0
256	4	0
441	0	0
784	576	0
1156	1369	0
1296	1024	0
1296	1764	0
784	2500	0
289	900	0
81	49	0
9	100	0
16	64	0
144	144	0
196	484	0
121	36	0
49	0	0
4	81	0
16	25	0
196	256	0
625	576	0
961	256	0
1225	529	0
1369	1521	0
1225	1089	0
729	324	0
361	400	0
100	441	0
4	9	0
4	9	0
36	36	0
144	9	0
144	196	0
36	169	0
4	16	0
64	81	0
225	100	0
729	900	0
1225	2209	0
1225	1225	0
1225	441	0
1225	1156	0
841	1225	0
225	9	0
16	196	0
0	0	0
36	16	0
121	169	0
121	64	0
64	121	0
16	81	0
4	1	0
225	169	0
484	1225	0
676	841	0
1024	529	0
1296	1444	0
1156	2025	0
729	625	0
441	144	0
256	324	0
36	100	0
25	196	0
121	484	0
121	121	0
100	225	0
64	676	0
1	256	0
64	49	0
289	196	0
484	225	0
676	900	0
729	1521	0
729	841	0
841	900	0
784	1764	0
484	1156	0
196	81	0
49	0	0
0	4	0
36	64	0
64	361	0
4	16	0
1	144	0
9	1	0
49	9	0
256	441	0
576	1521	0
784	900	0
1024	1024	0
1225	2500	0
1089	1764	0
576	225	0
289	144	0
100	484	0
0	49	0
25	196	0
36	100	0
49	4	0
64	36	0
4	100	0
49	64	0
196	441	0
225	121	0
400	144	0
784	900	0
784	961	0
484	64	0
324	4	0
289	169	0
169	100	0
36	36	0
1	25	0
0	9	0
4	4	0
1	16	0
49	289	0
100	784	0
100	225	0
289	144	0
441	900	0
441	961	0
484	225	0
576	169	0
484	441	0
289	81	0
225	4	0
256	121	0
144	529	0
9	16	0
9	100	0
1	36	0
1	324	0
4	16	0
36	49	0
144	729	0
256	784	0
324	121	0
441	196	0
441	676	0
324	400	0
289	100	0
324	400	0
225	841	0
64	144	0
36	4	0
100	64	0
64	64	0
4	225	0
4	529	0
49	9	0
100	256	0
81	9	0
100	1	0
196	256	0
256	361	0
256	225	0
324	841	0
324	1444	0
225	361	0
225	36	0
196	324	0
81	529	0
36	16	0
49	1	0
100	289	0
81	225	0
36	0	0
81	36	0
169	400	0
169	144	0
196	0	0
289	225	0
324	729	0
196	144	0
144	9	0
144	225	0
49	225	0
1	0	0
16	36	0
100	841	0
144	676	0
225	16	0
256	25	0
196	289	0
100	100	0
100	0	0
196	169	0
225	484	0
100	1	0
100	100	0
256	121	0
225	529	0
81	1	0
64	49	0
196	169	0
289	529	0
196	121	0
169	361	0
196	1089	0
121	441	0
81	25	0
121	196	0
100	529	0
49	81	0
49	1	0
81	256	0
81	400	0
64	25	0
100	16	0
196	289	0
196	196	0
196	0	0
256	9	0
324	225	0
225	81	0
144	1	0
121	64	0
121	400	0
81	169	0
100	64	0
144	484	0
121	484	0
64	9	0
64	0	0
64	225	0
49	225	0
100	4	0
196	100	0
144	400	0
49	121	0
81	4	0
324	441	0
576	1024	0
289	64	0
144	36	0
144	169	0
121	576	0
49	1	0
36	36	0
81	144	0
81	324	0
64	81	0
100	400	0
169	1156	0
169	529	0
256	81	0
400	484	0
400	900	0
225	169	0
144	16	0
196	256	0
81	256	0
9	0	0
16	1	0
81	121	0
81	25	0
64	144	0
49	81	0
64	49	0
81	81	0
144	9	0
256	225	0
289	676	0
289	256	0
324	169	0
361	841	0
289	841	0
169	64	0
169	25	0
100	225	0
36	121	0
25	1	0
81	49	0
121	400	0
49	36	0
49	9	0
196	256	0
256	841	0
144	64	0
121	16	0
256	256	0
289	729	0
196	121	0
196	225	0
256	1156	0
196	576	0
81	4	0
64	49	0
16	361	0
4	16	0
0	25	0
100	144	0
289	729	0
361	169	0
441	36	0
441	441	0
361	484	0
169	1	0
121	49	0
144	81	0
121	144	0
25	9	0
9	4	0
16	100	0
16	36	0
36	9	0
100	361	0
49	625	0
25	49	0
81	9	0
256	576	0
324	841	0
324	169	0
529	169	0
576	576	0
361	289	0
225	36	0
289	196	0
256	484	0
64	25	0
1	49	0
9	81	0
25	400	0
49	36	0
121	49	0
225	625	0
225	529	0
225	16	0
256	121	0
289	841	0
225	484	0
196	25	0
289	169	0
196	441	0
16	9	0
4	64	0
81	81	0
81	441	0
9	36	0
4	0	0
49	169	0
81	144	0
81	64	0
100	100	0
169	64	0
169	196	0
196	9	0
324	81	0
400	529	0
289	324	0
225	169	0
256	729	0
169	961	0
81	100	0
100	25	0
169	361	0
100	289	0
36	0	0
64	1	0
121	225	0
81	121	0
81	4	0
196	289	0
289	900	0
256	361	0
289	81	0
256	400	0
144	529	0
36	16	0
4	9	0
16	361	0
49	256	0
81	1	0
121	1	0
121	196	0
100	100	0
144	9	0
256	256	0
256	729	0
196	225	0
196	36	0
361	400	0
324	484	0
144	9	0
81	169	0
169	64	0
169	256	0
49	0	0
16	9	0
25	121	0
49	144	0
100	36	0
256	441	0
289	1024	0
196	289	0
169	81	0
196	676	0
169	1089	0
121	196	0
169	81	0
196	441	0
144	256	0
64	1	0
100	4	0
144	225	0
81	81	0
64	4	0
81	64	0
121	324	0
100	36	0
100	1	0
169	324	0
144	400	0
49	9	0
36	9	0
100	484	0
169	529	0
225	64	0
289	121	0
256	484	0
169	169	0
196	4	0
361	196	0
289	484	0
100	0	0
36	100	0
144	81	0
169	361	0
81	4	0
64	4	0
121	225	0
121	441	0
121	144	0
169	441	0
144	900	0
64	289	0
100	36	0
196	289	0
169	484	0
64	49	0
36	0	0
49	144	0
100	289	0
169	100	0
289	169	0
256	441	0
100	144	0
49	1	0
144	36	0
256	256	0
196	64	0
196	1	0
225	36	0
225	196	0
196	81	0
225	121	0
225	576	0
169	441	0
100	36	0
121	64	0
100	400	0
49	256	0
49	16	0
144	100	0
196	289	0
121	16	0
81	9	0
121	144	0
121	441	0
64	25	0
49	4	0
121	196	0
196	441	0
256	121	0
196	289	0
144	900	0
64	441	0
81	16	0
121	100	0
81	484	0
64	196	0
100	36	0
196	289	0
169	441	0
64	49	0
100	9	0
169	256	0
169	324	0
169	36	0
196	49	0
289	196	0
289	49	0
256	9	0
196	1	0
100	121	0
49	100	0
121	36	0
169	196	0
100	256	0
81	81	0
121	81	0
81	289	0
64	225	0
100	64	0
289	144	0
256	400	0
100	256	0
64	64	0
100	144	0
100	256	0
81	64	0
100	4	0
64	100	0
49	256	0
81	49	0
121	9	0
144	196	0
169	289	0
225	64	0
144	25	0
64	121	0
144	256	0
361	289	0
324	289	0
100	256	0
49	100	0
100	64	0
169	256	0
100	256	0
81	64	0
169	64	0
196	324	0
169	400	0
144	49	0
144	1	0
169	100	0
196	144	0
196	16	0
225	9	0
169	100	0
169	169	0
169	196	0
121	529	0
64	529	0
100	144	0
144	100	0
64	256	0
25	196	0
64	36	0
196	81	0
36	196	0
36	81	0
25	16	0
81	169	0
324	361	0
529	121	0
625	36	0
441	225	0
225	324	0
196	81	0
225	81	0
225	324	0
169	256	0
169	36	0
169	100	0
169	324	0
256	169	0
576	36	0
441	169	0
25	256	0
9	81	0
289	25	0
441	169	0
144	225	0
25	36	0
64	36	0
100	196	0
64	169	0
100	4	0
225	1	0
144	81	0
64	81	0
64	64	0
100	256	0
81	400	0
64	169	0
81	144	0
100	441	0
49	441	0
64	144	0
144	169	0
121	400	0
64	196	0
36	4	0
25	25	0
25	144	0
25	49	0
64	4	0
196	144	0
256	289	0
256	100	0
400	64	0
400	225	0
361	196	0
324	64	0
225	169	0
100	441	0
36	225	0
36	36	0
81	121	0
81	196	0
81	64	0
144	25	0
225	121	0
196	169	0
144	49	0
144	81	0
144	361	0
121	361	0
121	36	0
169	16	0
196	169	0
144	225	0
144	49	0
144	49	0
36	100	0
0	49	0
49	64	0
225	361	0
289	441	0
289	169	0
324	121	0
256	324	0
144	289	0
121	81	0
169	169	0
144	441	0
64	196	0
100	25	0
196	64	0
256	256	0
289	169	0
289	49	0
169	81	0
100	121	0
81	64	0
144	100	0
169	289	0
100	225	0
64	16	0
64	9	0
16	49	0
1	9	0
0	4	0
81	196	0
196	576	0
169	361	0
256	144	0
484	289	0
441	324	0
225	36	0
121	4	0
121	169	0
169	256	0
225	36	0
256	25	0
196	225	0
100	256	0
81	121	0
100	289	0
64	529	0
49	225	0
100	64	0
144	225	0
100	324	0
100	100	0
169	49	0
169	289	0
100	256	0
81	49	0
121	64	0
144	225	0
121	100	0
144	1	0
196	64	0
196	225	0
196	64	0
256	9	0
196	64	0
100	144	0
64	49	0
81	100	0
121	400	0
100	361	0
121	81	0
169	49	0
144	169	0
64	100	0
100	36	0
324	196	0
484	361	0
256	100	0
144	25	0
100	225	0
81	361	0
64	36	0
49	0	0
64	100	0
64	225	0
121	81	0
225	225	0
169	576	0
100	361	0
81	81	0
81	169	0
81	361	0
81	121	0
144	36	0
196	196	0
144	225	0
81	36	0
100	16	0
144	169	0
121	196	0
121	36	0
196	64	0
196	225	0
144	100	0
196	1	0
169	9	0
64	25	0
25	9	0
81	25	0
196	324	0
225	576	0
196	289	0
169	289	0
100	484	0
64	324	0
64	64	0
196	100	0
196	289	0
144	196	0
144	81	0
169	256	0
196	361	0
196	49	0
169	1	0
144	121	0
225	324	0
289	121	0
225	100	0
121	324	0
81	256	0
100	49	0
169	144	0
196	361	0
81	81	0
64	0	0
121	64	0
169	289	0
225	121	0
256	64	0
169	256	0
81	256	0
81	49	0
144	49	0
144	289	0
49	256	0
25	16	0
100	16	0
256	100	0
256	64	0
196	9	0
144	49	0
64	196	0
64	169	0
100	196	0
100	400	0
49	324	0
64	81	0
144	121	0
121	400	0
49	289	0
100	25	0
100	25	0
9	144	0
16	64	0
121	16	0
324	144	0
400	324	0
324	81	0
196	9	0
169	169	0
144	324	0
144	121	0
196	144	0
169	441	0
121	324	0
169	81	0
225	121	0
169	225	0
81	100	0
100	25	0
169	169	0
169	256	0
121	64	0
100	49	0
100	289	0
100	324	0
81	16	0
121	0	0
169	144	0
144	196	0
121	36	0
100	36	0
81	169	0
64	121	0
121	81	0
169	324	0
144	484	0
196	225	0
256	169	0
196	361	0
81	324	0
100	64	0
169	64	0
169	289	0
100	144	0
81	4	0
144	49	0
144	169	0
121	49	0
121	1	0
196	100	0
169	225	0
64	25	0
81	9	0
169	225	0
196	324	0
196	121	0
225	225	0
169	625	0
100	441	0
121	100	0
196	121	0
169	225	0
144	64	0
169	25	0
256	196	0
169	289	0
100	100	0
144	64	0
169	256	0
100	256	0
64	9	0
64	0	0
64	144	0
64	225	0
100	81	0
169	225	0
144	441	0
81	169	0
81	9	0
64	100	0
81	289	0
169	121	0
400	100	0
324	361	0
169	289	0
100	36	0
169	36	0
144	196	0
100	100	0
81	1	0
169	49	0
225	256	0
196	144	0
196	49	0
169	144	0
144	256	0
144	81	0
144	81	0
144	400	0
81	361	0
81	64	0
144	81	0
144	225	0
121	121	0
169	49	0
225	169	0
169	289	0
81	121	0
100	36	0
169	256	0
121	324	0
64	16	0
81	0	0
100	196	0
144	324	0
169	49	0
169	16	0
100	196	0
81	196	0
121	81	0
169	256	0
121	529	0
100	225	0
169	49	0
169	196	0
100	289	0
100	64	0
196	49	0
225	256	0
121	225	0
64	36	0
100	64	0
121	256	0
100	144	0
144	16	0
196	25	0
225	144	0
144	81	0
100	64	0
100	196	0
100	225	0
121	81	0
169	144	0
121	441	0
81	361	0
144	81	0
225	64	0
196	121	0
81	81	0
64	25	0
100	169	0
121	289	0
100	81	0
121	25	0
144	225	0
100	289	0
100	25	0
121	0	0
196	169	0
196	324	0
196	100	0
256	196	0
196	484	0
121	225	0
169	49	0
169	225	0
121	441	0
100	196	0
169	100	0
196	361	0
100	289	0
81	49	0
144	49	0
169	289	0
64	196	0
64	9	0
196	4	0
196	64	0
144	25	0
169	1	0
196	100	0
196	256	0
144	100	0
144	36	0
81	121	0
25	169	0
36	100	0
64	144	0
81	324	0
64	196	0
144	36	0
289	64	0
256	225	0
169	121	0
144	49	0
169	256	0
144	441	0
144	144	0
169	36	0
225	256	0
196	361	0
196	121	0
225	196	0
169	529	0
121	324	0
169	49	0
196	100	0
121	289	0
49	100	0
81	16	0
100	121	0
81	256	0
81	64	0
121	36	0
169	256	0
121	324	0
81	64	0
121	64	0
169	256	0
196	144	0
196	1	0
225	4	0
144	81	0
81	49	0
100	1	0
144	64	0
121	225	0
121	169	0
169	169	0
144	441	0
100	400	0
121	100	0
169	144	0
144	441	0
81	225	0
100	16	0
144	36	0
144	169	0
81	49	0
81	1	0
169	100	0
169	256	0
169	100	0
225	100	0
121	324	0
49	289	0
36	36	0
100	81	0
169	361	0
196	324	0
196	100	0
225	169	0
121	256	0
81	81	0
100	25	0
169	169	0
121	256	0
64	81	0
100	81	0
196	324	0
196	324	0
196	9	0
144	0	0
100	100	0
64	169	0
81	36	0
121	36	0
121	144	0
121	121	0
169	100	0
225	361	0
196	484	0
196	144	0
256	64	0
225	289	0
121	324	0
100	121	0
169	144	0
121	324	0
64	121	0
81	1	0
196	49	0
256	289	0
144	144	0
100	36	0
64	196	0
64	289	0
81	121	0
144	144	0
121	324	0
49	144	0
49	1	0
100	16	0
100	225	0
100	196	0
169	64	0
256	225	0
169	361	0
121	100	0
256	25	0
400	196	0
256	256	0
144	9	0
169	0	0
289	144	0
196	289	0
64	64	0
16	25	0
16	225	0
81	324	0
196	196	0
225	361	0
169	529	0
169	144	0
169	25	0
144	144	0
64	289	0
100	100	0
256	100	0
256	289	0
121	169	0
64	9	0
144	25	0
144	196	0
100	81	0
121	4	0
144	64	0
144	289	0
121	144	0
144	49	0
121	196	0
81	225	0
100	81	0
144	121	0
144	361	0
121	324	0
196	121	0
256	169	0
144	196	0
81	64	0
121	64	0
196	256	0
121	289	0
81	81	0
121	64	0
144	225	0
64	144	0
81	1	0
144	0	0
121	81	0
81	169	0
144	144	0
169	289	0
81	400	0
81	196	0
225	144	0
256	196	0
121	196	0
144	121	0
225	100	0
144	121	0
36	100	0
64	64	0
196	144	0
169	144	0
100	81	0
121	49	0
144	121	0
144	169	0
169	144	0
324	121	0
256	100	0
121	144	0
144	361	0
225	324	0
121	169	0
25	100	0
81	169	0
169	196	0
64	121	0
25	100	0
144	100	0
225	100	0
121	64	0
81	36	0
169	81	0
144	100	0
81	100	0
121	196	0
225	196	0
144	121	0
100	100	0
225	169	0
324	225	0
225	121	0
169	64	0
169	36	0
36	25	0
0	25	0
9	81	0
196	225	0
256	289	0
144	225	0
100	144	0
144	196	0
196	484	0
121	361	0
81	81	0
169	121	0
225	484	0
144	256	0
100	1	0
144	4	0
144	144	0
121	81	0
100	4	0
169	121	0
144	324	0
144	100	0
225	64	0
225	441	0
100	361	0
64	16	0
144	25	0
121	256	0
36	144	0
81	9	0
289	169	0
361	529	0
169	81	0
121	0	0
169	225	0
144	576	0
36	36	0
36	16	0
121	169	0
169	484	0
169	64	0
225	121	0
256	784	0
196	529	0
144	25	0
256	169	0
256	676	0
100	256	0
81	25	0
121	289	0
100	529	0
49	64	0
81	16	0
169	256	0
144	324	0
64	4	0
81	4	0
81	169	0
81	49	0
64	144	0
121	81	0
169	100	0
169	121	0
169	25	0
196	196	0
169	484	0
121	144	0
144	121	0
196	729	0
121	676	0
64	49	0
121	16	0
121	196	0
64	49	0
64	4	0
169	81	0
225	529	0
100	121	0
64	0	0
144	441	0
225	1156	0
196	256	0
225	121	0
324	676	0
256	529	0
169	9	0
169	36	0
196	625	0
121	324	0
100	1	0
169	49	0
144	361	0
36	81	0
49	0	0
121	169	0
144	400	0
81	25	0
121	1	0
169	256	0
169	289	0
121	9	0
121	64	0
144	36	0
81	49	0
25	36	0
36	1	0
100	289	0
81	169	0
64	81	0
256	729	0
324	1089	0
256	225	0
256	100	0
324	625	0
225	529	0
144	9	0
144	1	0
144	196	0
49	121	0
36	4	0
144	196	0
196	625	0
169	225	0
196	64	0
225	361	0
144	441	0
49	9	0
49	16	0
121	529	0
121	441	0
100	9	0
144	25	0
169	361	0
121	169	0
121	9	0
225	196	0
169	576	0
49	100	0
81	1	0
196	225	0
196	324	0
64	25	0
49	169	0
169	64	0
196	289	0
121	1	0
81	1	0
81	121	0
81	169	0
100	121	0
225	676	0
256	1089	0
196	324	0
196	81	0
289	529	0
196	625	0
121	36	0
121	49	0
144	529	0
121	324	0
100	1	0
144	1	0
144	196	0
49	36	0
64	1	0
196	196	0
256	676	0
121	144	0
100	36	0
169	400	0
169	529	0
121	64	0
169	121	0
256	900	0
196	576	0
144	9	0
196	9	0
121	169	0
49	36	0
49	0	0
169	225	0
196	529	0
81	9	0
49	100	0
121	49	0
100	225	0
49	16	0
64	64	0
169	144	0
256	361	0
225	121	0
225	484	0
196	1296	0
121	529	0
121	25	0
169	196	0
121	484	0
81	81	0
121	25	0
196	484	0
144	576	0
81	49	0
144	36	0
169	324	0
64	64	0
36	49	0
121	4	0
196	100	0
144	36	0
121	9	0
121	9	0
81	169	0
64	49	0
81	36	0
144	484	0
196	576	0
196	100	0
256	121	0
225	576	0
169	400	0
169	100	0
289	289	0
289	784	0
121	324	0
100	36	0
196	289	0
196	529	0
121	1	0
100	144	0
169	81	0
144	441	0
100	64	0
121	144	0
196	900	0
144	529	0
100	25	0
100	196	0
81	576	0
49	81	0
64	4	0
144	169	0
169	529	0
100	81	0
144	4	0
225	196	0
81	196	0
25	0	0
64	1	0
144	256	0
121	100	0
100	36	0
121	4	0
169	169	0
169	81	0
169	4	0
196	169	0
169	484	0
100	196	0
121	144	0
225	729	0
169	529	0
121	36	0
144	36	0
169	324	0
100	100	0
81	1	0
169	121	0
196	400	0
100	9	0
81	16	0
169	256	0
169	784	0
64	16	0
64	36	0
144	196	0
225	529	0
225	144	0
289	361	0
289	1225	0
144	625	0
81	49	0
144	196	0
196	576	0
121	100	0
121	0	0
196	100	0
144	289	0
25	36	0
49	25	0
144	361	0
121	289	0
64	9	0
64	49	0
100	64	0
100	100	0
121	0	0
225	16	0
196	225	0
121	121	0
144	100	0
256	676	0
196	900	0
121	225	0
144	36	0
169	196	0
100	196	0
64	16	0
144	100	0
144	484	0
81	169	0
64	4	0
169	169	0
196	529	0
121	36	0
64	25	0
49	100	0
25	289	0
9	9	0
49	36	0
225	529	0
324	361	0
324	16	0
441	196	0
400	1156	0
225	676	0
196	121	0
256	324	0
225	676	0
100	144	0
121	4	0
196	256	0
196	441	0
81	16	0
100	1	0
196	225	0
196	121	0
100	49	0
81	100	0
100	64	0
100	169	0
81	36	0
100	81	0
100	324	0
64	121	0
100	81	0
169	529	0
121	576	0
81	9	0
144	1	0
256	289	0
144	256	0
81	4	0
121	36	0
144	256	0
81	64	0
64	0	0
169	256	0
256	729	0
169	169	0
196	25	0
225	361	0
144	441	0
64	16	0
100	81	0
225	900	0
196	576	0
121	9	0
144	16	0
144	256	0
64	121	0
64	16	0
100	256	0
100	625	0
36	100	0
64	9	0
144	289	0
144	256	0
100	81	0
81	196	0
169	64	0
256	225	0
196	1	0
144	9	0
121	289	0
100	225	0
144	81	0
225	529	0
225	900	0
121	225	0
100	64	0
144	625	0
100	784	0
64	121	0
100	36	0
169	256	0
100	121	0
121	4	0
256	16	0
361	289	0
196	121	0
121	4	0
169	144	0
169	484	0
144	100	0
169	36	0
169	441	0
81	441	0
49	9	0
81	4	0
121	169	0
81	121	0
81	1	0
169	144	0
169	676	0
64	289	0
64	36	0
169	324	0
225	441	0
100	1	0
36	100	0
64	81	0
36	225	0
9	25	0
25	81	0
121	144	0
121	324	0
196	169	0
361	784	0
361	1764	0
225	576	0
225	36	0
256	324	0
256	729	0
169	144	0
256	36	0
361	529	0
289	841	0
169	121	0
169	25	0
144	144	0
81	25	0
36	49	0
100	0	0
121	144	0
64	16	0
64	25	0
100	49	0
100	289	0
81	81	0
100	81	0
169	729	0
169	676	0
144	49	0
196	25	0
144	289	0
81	169	0
100	25	0
169	196	0
196	484	0
100	25	0
81	16	0
196	169	0
225	400	0
64	4	0
36	121	0
169	225	0
256	784	0
256	225	0
324	361	0
324	1225	0
225	576	0
144	16	0
121	144	0
100	529	0
49	100	0
81	0	0
144	225	0
144	484	0
64	49	0
81	4	0
144	225	0
100	289	0
49	9	0
64	16	0
100	169	0
64	36	0
36	81	0
64	9	0
144	121	0
169	81	0
196	36	0
225	324	0
225	576	0
169	169	0
169	144	0
169	729	0
81	529	0
81	9	0
196	4	0
225	225	0
121	169	0
121	25	0
225	256	0
196	576	0
81	36	0
64	4	0
169	361	0
169	784	0
64	16	0
81	36	0
196	256	0
196	625	0
144	100	0
144	225	0
144	961	0
100	441	0
64	9	0
121	64	0
144	361	0
100	64	0
121	1	0
256	324	0
256	676	0
196	81	0
196	1	0
225	121	0
144	64	0
16	100	0
16	144	0
49	25	0
64	81	0
64	4	0
144	81	0
169	441	0
144	169	0
169	121	0
289	1024	0
225	1521	0
169	400	0
225	196	0
256	625	0
196	400	0
121	1	0
121	4	0
121	121	0
64	25	0
64	4	0
144	169	0
196	529	0
81	16	0
49	64	0
100	100	0
121	400	0
81	36	0
121	81	0
225	784	0
196	676	0
196	49	0
256	169	0
289	1024	0
169	529	0
144	36	0
196	196	0
121	484	0
36	36	0
49	1	0
144	225	0
144	441	0
49	4	0
64	49	0
100	49	0
100	81	0
36	81	0
64	144	0
121	36	0
121	169	0
121	100	0
289	729	0
324	1156	0
169	289	0
121	49	0
144	441	0
121	576	0
100	16	0
144	16	0
169	400	0
100	225	0
81	4	0
144	4	0
225	256	0
144	49	0
121	4	0
256	196	0
225	729	0
144	289	0
144	121	0
225	625	0
196	576	0
81	16	0
100	36	0
169	676	0
144	441	0
100	0	0
121	9	0
100	289	0
49	169	0
49	25	0
144	324	0
196	729	0
144	100	0
144	0	0
324	169	0
256	225	0
81	81	0
25	225	0
64	64	0
100	256	0
64	1	0
49	1	0
64	225	0
81	169	0
169	81	0
324	676	0
289	1225	0
144	289	0
144	64	0
256	441	0
196	529	0
100	81	0
121	100	0
169	529	0
100	196	0
25	16	0
25	1	0
64	121	0
144	64	0
256	4	0
289	169	0
196	529	0
81	81	0
100	25	0
225	400	0
196	324	0
121	1	0
121	1	0
121	289	0
100	256	0
144	49	0
256	169	0
225	441	0
49	81	0
81	1	0
256	324	0
289	529	0
100	0	0
36	81	0
121	225	0
144	625	0
64	9	0
64	16	0
144	196	0
225	484	0
256	169	0
289	676	0
256	1521	0
144	529	0
121	36	0
196	324	0
121	576	0
36	49	0
49	4	0
121	324	0
144	361	0
121	9	0
144	9	0
196	196	0
121	49	0
64	25	0
81	9	0
100	324	0
64	81	0
49	9	0
121	25	0
169	225	0
144	36	0
169	36	0
169	529	0
81	529	0
64	49	0
144	36	0
196	361	0
144	196	0
121	16	0
196	144	0
196	529	0
81	100	0
64	0	0
196	289	0
289	676	0
169	4	0
121	81	0
225	169	0
289	625	0
256	144	0
324	256	0
400	1089	0
225	529	0
64	1	0
64	49	0
64	484	0
36	121	0
64	4	0
144	324	0
144	729	0
81	100	0
121	4	0
256	256	0
169	324	0
49	4	0
81	0	0
144	100	0
121	9	0
64	121	0
81	25	0
81	121	0
81	100	0
64	9	0
121	225	0
144	625	0
121	225	0
196	225	0
289	841	0
169	576	0
121	25	0
196	25	0
196	289	0
81	100	0
25	0	0
81	144	0
81	529	0
25	25	0
64	16	0
256	289	0
324	729	0
144	144	0
144	121	0
225	900	0
225	729	0
196	36	0
225	100	0
256	784	0
121	400	0
121	0	0
196	36	0
121	256	0
36	49	0
81	4	0
144	289	0
100	576	0
64	64	0
144	0	0
289	196	0
225	100	0
100	121	0
81	144	0
169	25	0
196	100	0
100	0	0
81	36	0
121	361	0
144	225	0
169	121	0
256	729	0
144	961	0
81	144	0
144	81	0
225	576	0
121	484	0
36	4	0
100	1	0
144	144	0
100	49	0
100	0	0
196	225	0
196	784	0
81	144	0
49	1	0
81	144	0
100	400	0
121	36	0
289	121	0
361	900	0
256	625	0
121	16	0
169	16	0
196	256	0
100	100	0
81	1	0
196	225	0
256	676	0
144	169	0
100	9	0
169	289	0
169	441	0
49	16	0
36	169	0
81	100	0
121	441	0
81	16	0
81	4	0
100	81	0
100	64	0
100	16	0
169	400	0
196	961	0
144	256	0
169	100	0
225	676	0
196	841	0
121	100	0
169	36	0
225	400	0
144	324	0
81	4	0
121	25	0
196	289	0
100	49	0
49	16	0
100	81	0
144	400	0
121	36	0
121	1	0
196	324	0
196	576	0
121	64	0
169	100	0
289	1024	0
225	784	0
121	36	0
144	9	0
144	196	0
81	49	0
100	0	0
169	169	0
81	400	0
1	4	0
1	25	0
100	225	0
169	484	0
81	4	0
81	121	0
196	121	0
289	441	0
289	121	0
361	400	0
324	1296	0
196	441	0
144	1	0
196	144	0
144	484	0
64	64	0
100	1	0
196	289	0
169	484	0
81	64	0
81	49	0
144	324	0
100	121	0
36	9	0
49	4	0
100	196	0
64	36	0
64	16	0
100	49	0
100	361	0
100	144	0
169	100	0
324	625	0
256	529	0
169	9	0
144	16	0
196	400	0
121	324	0
81	25	0
196	169	0
256	625	0
100	256	0
64	9	0
169	196	0
196	441	0
81	0	0
64	121	0
169	144	0
121	324	0
25	16	0
64	49	0
196	289	0
169	576	0
144	169	0
256	576	0
289	1369	0
196	484	0
196	36	0
256	361	0
225	729	0
144	121	0
121	16	0
196	324	0
144	324	0
49	1	0
49	1	0
121	225	0
169	81	0
169	100	0
196	49	0
144	64	0
64	36	0
49	0	0
100	121	0
100	400	0
121	100	0
169	100	0
196	729	0
144	729	0
100	100	0
121	64	0
121	441	0
64	324	0
49	49	0
100	225	0
121	625	0
64	49	0
49	25	0
144	144	0
169	625	0
49	9	0
36	64	0
121	169	0
225	484	0
225	64	0
256	196	0
289	1225	0
196	676	0
196	49	0
289	225	0
225	729	0
100	144	0
100	4	0
196	256	0
144	529	0
9	16	0
25	9	0
100	81	0
16	81	0
0	36	0
36	9	0
225	196	0
361	169	0
256	0	0
324	4	0
400	225	0
361	121	0
289	100	0
324	900	0
256	1296	0
169	256	0
225	64	0
225	400	0
100	361	0
36	1	0
81	4	0
100	196	0
64	36	0
36	25	0
144	49	0
196	441	0
64	25	0
25	16	0
121	169	0
169	576	0
121	81	0
144	121	0
256	961	0
225	676	0
144	16	0
196	81	0
256	784	0
144	441	0
81	4	0
144	121	0
144	441	0
49	64	0
81	0	0
144	256	0
100	529	0
25	36	0
64	1	0
169	225	0
169	169	0
81	100	0
64	144	0
81	16	0
100	36	0
81	9	0
144	36	0
196	441	0
144	225	0
196	121	0
289	784	0
225	961	0
100	121	0
144	100	0
169	676	0
169	529	0
196	9	0
225	16	0
169	225	0
49	49	0
36	1	0
144	196	0
256	729	0
169	121	0
169	9	0
225	324	0
196	529	0
100	36	0
121	64	0
196	841	0
196	576	0
100	9	0
81	16	0
100	256	0
64	100	0
100	1	0
256	361	0
225	961	0
81	225	0
49	4	0
121	225	0
64	324	0
9	49	0
64	225	0
256	64	0
225	256	0
25	0	0
9	4	0
49	121	0
121	81	0
225	25	0
400	529	0
400	961	0
196	256	0
196	81	0
256	576	0
196	676	0
100	49	0
64	9	0
64	289	0
49	196	0
36	1	0
169	16	0
196	225	0
81	49	0
100	0	0
256	361	0
324	900	0
225	196	0
225	36	0
225	484	0
144	529	0
100	25	0
169	36	0
256	400	0
196	289	0
169	25	0
121	169	0
25	576	0
9	144	0
1	1	0
121	144	0
400	484	0
324	0	0
289	100	0
324	121	0
196	361	0
64	16	0
49	196	0
121	36	0
121	256	0
121	100	0
256	529	0
361	1444	0
196	576	0
100	81	0
169	484	0
100	676	0
49	36	0
81	0	0
169	289	0
225	361	0
16	25	0
49	49	0
36	400	0
4	144	0
16	25	0
64	9	0
784	361	0
1089	144	0
961	4	0
1089	196	0
1296	529	0
1024	64	0
324	16	0
4	441	0
169	361	0
100	1	0
361	16	0
2025	100	0
2401	121	0
729	64	0
100	484	0
841	1089	0
25	289	0
441	1	0
9	64	0
81	196	0
256	81	0
2500	361	0
2209	64	0
169	576	0
169	256	0
1764	676	0
4356	2116	0
6561	1225	0
4489	225	0
576	676	0
225	1296	0
1225	196	0
529	36	0
25	9	0
4	144	0
100	0	0
49	0	0
225	289	0
2304	196	0
3249	100	0
2025	196	0
1296	9	0
256	25	0
121	81	0
841	81	0
729	9	0
25	4	0
49	4	0
49	225	0
441	900	0
1225	289	0
0	324	0
2401	1369	0
2500	1225	0
1521	196	0
1296	121	0
169	784	0
121	625	0
1	49	0
361	121	0
1	324	0
2809	25	0
3969	289	0
64	225	0
6241	1444	0
5625	289	0
1764	4	0
169	225	0
196	361	0
625	25	0
9	169	0
2500	1225	0
7569	729	0
3600	64	0
81	289	0
121	625	0
64	100	0
1444	9	0
1369	441	0
900	841	0
961	100	0
49	4	0
1225	100	0
169	100	0
256	169	0
1849	289	1
144	100	1
1225	625	1
2704	256	1
2116	64	1
121	25	1
841	36	1
784	16	1
100	441	1
324	729	1
729	49	1
4489	0	1
3364	225	1
0	256	1
2916	25	1
4900	144	1
3721	441	1
2209	49	1
2500	0	1
1369	225	1
1	576	1
784	64	1
2025	4	1
2401	256	1
169	676	1
1600	144	1
4489	289	1
2809	1444	1
64	729	1
1089	0	1
16	100	1
3249	1089	1
3721	169	1
529	196	1
225	4	1
961	169	1
841	16	1
729	9	1
36	484	1
729	576	1
289	9	1
121	0	1
2401	169	1
4356	144	1
900	16	1
1089	16	1
4356	36	1
3025	0	1
2601	0	1
4489	676	1
5329	1521	1
2809	361	1
400	49	1
64	676	1
100	961	1
225	121	1
1600	25	1
729	121	1
4	4	1
324	36	1
2116	49	1
3481	625	1
441	225	1
441	4	1
289	361	1
16	900	1
100	100	1
144	16	1
64	441	1
2304	441	1
1764	9	1
1600	144	1
16900	1681	1
7569	1444	1
441	100	1
1521	16	1
0	49	1
324	16	1
676	64	1
2025	196	1
1600	784	1
9	100	1
576	16	1
400	64	1
9	225	1
9	16	1
4	64	1
484	169	1
729	196	1
729	121	1
196	121	1
256	121	1
1600	289	1
1600	196	1
0	1369	1
1764	2304	1
2401	576	1
2500	49	1
3364	361	1
2304	441	1
1225	9	1
676	25	1
0	441	1
961	289	1
2116	4	1
2025	49	1
256	256	1
441	25	1
625	9	1
441	144	1
784	625	1
1296	169	1
3481	289	1
4489	1521	1
1225	1369	1
1	81	1
529	1	1
1764	121	1
2025	36	1
49	36	1
2401	49	1
2809	484	1
256	64	1
441	9	1
3249	81	1
2916	100	1
289	256	1
169	784	1
841	0	1
256	361	1
9	0	1
36	81	1
25	121	1
1024	529	1
4356	400	1
3025	961	1
9	1681	1
1369	576	1
961	64	1
64	441	1
36	576	1
100	36	1
100	49	1
676	961	1
2601	841	1
3721	49	1
256	25	1
3025	324	1
6724	100	1
3249	4	1
729	36	1
625	289	1
324	25	1
49	36	1
169	36	1
1	400	1
256	256	1
1156	400	1
2809	1369	1
2916	625	1
4096	4	1
4624	1	1
961	144	1
36	36	1
256	4	1
256	144	1
100	361	1
1296	25	1
900	196	1
64	289	1
324	1089	1
3481	9	1
3481	169	1
144	121	1
121	576	1
1024	81	1
6400	144	1
19600	1156	1
25281	900	1
12321	169	1
2116	400	1
49	784	1
441	121	1
100	1	1
1225	256	1
400	784	1
9	121	1
169	0	1
16	169	1
676	256	1
1369	9	1
841	9	1
625	169	1
81	81	1
49	16	1
25	0	1
841	169	1
3249	144	1
1296	121	1
4	529	1
25	729	1
81	121	1
2025	25	1
5929	169	1
2500	81	1
841	1	1
6400	16	1
7225	361	1
6400	289	1
4761	49	1
2500	196	1
900	324	1
0	1	1
676	36	1
121	289	1
529	729	1
1225	100	1
676	121	1
121	841	1
9	400	1
100	4	1
169	49	1
4	1089	1
625	784	1
841	81	1
361	100	1
100	196	1
2401	0	1
3364	25	1
1444	121	1
9	225	1
1521	0	1
3844	16	1
2601	400	1
49	121	1
784	81	1
784	81	1
16	16	1
225	49	1
121	16	1
64	225	1
289	625	1
1296	256	1
4356	169	1
5041	784	1
1521	729	1
1	81	1
196	144	1
1	900	1
0	484	1
25	1	1
81	9	1
841	49	1
2209	9	1
4096	4	1
6400	361	1
5625	484	1
441	16	1
484	1	1
529	400	1
1296	676	1
2704	81	1
784	169	1
16	961	1
9	625	1
144	25	1
625	100	1
961	676	1
25	289	1
1024	36	1
3600	324	1
5041	729	1
3844	121	1
2601	4	1
1089	225	1
49	289	1
81	9	1
169	100	1
784	0	1
2704	1	1
1296	81	1
324	25	1
2304	100	1
1225	256	1
121	121	1
64	225	1
1156	576	1
4096	529	1
5776	576	1
4096	784	1
1024	400	1
784	121	1
2116	289	1
729	256	1
144	9	1
1225	121	1
1089	16	1
81	484	1
289	529	1
841	196	1
529	81	1
36	81	1
64	81	1
225	49	1
1089	16	1
2209	16	1
529	144	1
25	361	1
36	441	1
121	484	1
64	225	1
1444	1	1
3364	4	1
256	1	1
1024	49	1
1936	81	1
1521	64	1
2304	36	1
3481	81	1
4356	256	1
5929	484	1
6724	625	1
4489	484	1
729	441	1
144	625	1
676	400	1
169	196	1
0	144	1
484	169	1
2916	144	1
2209	36	1
81	25	1
49	36	1
256	64	1
169	81	1
361	196	1
1681	324	1
81	169	1
2304	25	1
4225	16	1
676	49	1
64	64	1
576	100	1
2209	100	1
3600	4	1
2209	9	1
256	36	1
169	196	1
169	100	1
49	16	1
484	64	1
529	400	1
64	576	1
16	441	1
1089	361	1
3249	196	1
729	4	1
576	9	1
676	36	1
81	289	1
484	441	1
100	576	1
64	676	1
196	625	1
0	484	1
25	289	1
400	144	1
1600	81	1
484	49	1
289	4	1
2601	9	1
3969	49	1
1764	16	1
16	36	1
961	121	1
1764	100	1
729	196	1
225	400	1
256	484	1
900	289	1
2401	100	1
3969	121	1
4356	324	1
3721	400	1
3249	400	1
2601	441	1
1369	289	1
625	144	1
289	121	1
441	81	1
576	36	1
81	0	1
81	49	1
1521	36	1
3249	9	1
1024	225	1
16	400	1
225	196	1
256	121	1
961	196	1
3969	256	1
4900	196	1
225	144	1
1764	64	1
3481	4	1
3136	16	1
3025	64	1
2116	49	1
81	144	1
729	529	1
1444	625	1
1369	441	1
1024	784	1
441	1089	1
121	289	1
25	1	1
441	16	1
4	256	1
2025	100	1
3969	25	1
2209	289	1
225	400	1
64	81	1
36	144	1
576	625	1
1225	441	1
4	1	1
961	4	1
1156	16	1
576	9	1
289	196	1
9	0	1
196	225	1
324	81	1
2209	36	1
5329	576	1
5041	900	1
3969	196	1
4225	196	1
3136	784	1
676	441	1
25	1	1
81	25	1
289	576	1
196	256	1
16	4	1
256	169	1
64	529	1
9	25	1
361	9	1
961	324	1
16	576	1
625	16	1
169	64	1
16	1024	1
256	576	1
625	4	1
441	4	1
121	576	1
144	225	1
256	1	1
121	100	1
1	441	1
529	36	1
1089	1	1
25	169	1
81	196	1
1024	25	1
3481	49	1
256	81	1
841	49	1
1764	121	1
2116	16	1
1764	441	1
676	529	1
81	81	1
9	121	1
121	441	1
1936	196	1
1521	81	1
256	729	1
3136	961	1
6561	256	1
12996	324	1
11881	1156	1
2809	576	1
121	16	1
100	196	1
900	729	1
900	64	1
9	49	1
361	64	1
0	441	1
529	49	1
1369	25	1
289	784	1
1089	625	1
2209	1	1
361	0	1
9	400	1
81	256	1
361	4	1
289	1	1
0	144	1
484	25	1
729	25	1
841	64	1
784	484	1
484	144	1
1849	81	1
3721	784	1
1225	576	1
0	64	1
324	289	1
49	25	1
121	121	1
169	9	1
64	0	1
49	256	1
4	144	1
49	81	1
400	1089	1
1089	1849	1
169	484	1
121	100	1
1936	841	1
3481	900	1
2304	81	1
3721	81	1
4096	576	1
144	256	1
441	1	1
25	36	1
25	441	1
9	81	1
49	16	1
49	81	1
576	256	1
4624	16	1
6241	64	1
1156	841	1
289	784	1
2116	25	1
2401	36	1
841	625	1
36	361	1
256	0	1
441	16	1
16	196	1
1521	1	1
1764	49	1
529	144	1
441	324	1
1024	36	1
961	256	1
441	100	1
16	441	1
441	4	1
576	81	1
169	169	1
1089	529	1
3600	225	1
4900	529	1
4489	961	1
1521	225	1
16	0	1
81	225	1
169	529	1
64	49	1
4	36	1
4	676	1
100	576	1
1	64	1
576	100	1
1521	256	1
961	4	1
576	100	1
1764	36	1
1849	529	1
400	144	1
289	4	1
324	400	1
1	900	1
576	225	1
1089	169	1
81	961	1
361	625	1
729	1	1
676	16	1
841	400	1
729	100	1
961	25	1
2116	36	1
729	361	1
484	16	1
1296	49	1
16	144	1
576	400	1
1024	36	1
1156	196	1
2601	225	1
2601	961	1
484	49	1
9	16	1
169	121	1
400	81	1
1681	1	1
1849	324	1
25	1369	1
1936	576	1
1600	121	1
1156	784	1
1369	1156	1
784	400	1
25	225	1
16	784	1
256	400	1
64	16	1
121	1	1
4	256	1
1369	100	1
2401	81	1
625	16	1
121	100	1
0	9	1
1764	9	1
7056	196	1
5329	484	1
1225	81	1
289	64	1
576	576	1
1156	441	1
1156	36	1
225	121	1
64	576	1
484	441	1
441	121	1
49	576	1
9	961	1
64	25	1
49	121	1
961	100	1
961	324	1
81	121	1
1	484	1
361	49	1
961	441	1
900	49	1
1225	289	1
1521	1521	1
729	625	1
144	0	1
49	169	1
1	841	1
81	256	1
81	25	1
1	400	1
36	729	1
36	49	1
169	0	1
400	49	1
196	1	1
36	144	1
144	169	1
529	100	1
400	625	1
196	1849	1
289	324	1
256	625	1
64	1764	1
25	961	1
49	36	1
9	144	1
0	81	1
16	400	1
144	3481	1
121	4489	1
81	2025	1
289	1225	1
324	961	1
100	441	1
100	1156	1
361	4225	1
289	3364	1
16	49	1
9	169	1
256	361	1
289	1296	1
64	961	1
49	841	1
36	144	1
9	841	1
16	3249	1
25	3600	1
225	2209	1
289	64	1
196	289	1
196	784	1
324	1849	1
324	1521	1
576	900	1
841	1764	1
576	1764	1
196	324	1
169	144	1
256	576	1
81	400	1
0	36	1
0	81	1
1	484	1
9	36	1
4	625	1
100	225	1
400	64	1
441	1	1
400	324	1
529	4	1
729	676	1
784	729	1
676	169	1
361	25	1
16	225	1
0	400	1
64	841	1
100	6889	1
4	6241	1
9	2704	1
0	1849	1
0	361	1
9	49	1
289	121	1
841	1296	1
576	1	1
196	3721	1
144	4624	1
289	484	1
256	64	1
196	400	1
256	1024	1
196	1444	1
9	841	1
1	196	1
0	16	1
0	81	1
0	9	1
81	961	1
484	2809	1
441	841	1
169	529	1
169	1849	1
361	49	1
484	676	1
289	625	1
144	225	1
36	9	1
49	729	1
169	729	1
361	1	1
225	81	1
49	169	1
36	400	1
36	225	1
0	1936	1
4	2401	1
169	3481	1
441	3249	1
256	1089	1
121	324	1
256	324	1
484	49	1
361	576	1
196	1024	1
400	81	1
441	1369	1
121	324	1
36	289	1
49	1600	1
25	1156	1
1	100	1
9	36	1
64	144	1
81	16	1
196	25	1
676	784	1
841	484	1
400	400	1
256	1225	1
289	400	1
121	0	1
36	16	1
121	0	1
225	196	1
81	361	1
0	49	1
0	169	1
1	441	1
49	16	1
9	0	1
144	576	1
361	1764	1
256	1444	1
225	1764	1
441	3721	1
441	3481	1
361	576	1
441	144	1
400	196	1
144	4	1
16	9	1
100	484	1
256	2401	1
64	2601	1
4	1156	1
16	961	1
4	576	1
81	4	1
256	256	1
400	289	1
225	196	1
49	36	1
196	841	1
729	4489	1
676	1369	1
324	361	1
225	225	1
81	81	1
0	196	1
1	1764	1
100	289	1
81	81	1
0	36	1
0	576	1
100	529	1
169	484	1
36	529	1
49	25	1
361	2304	2
576	1936	2
484	196	2
729	576	2
961	2809	2
441	2500	2
64	1681	2
25	2500	2
9	1444	2
0	0	2
16	400	2
100	144	2
64	4	2
64	4	2
225	49	2
400	1089	2
256	1521	2
169	49	2
400	144	2
529	0	2
361	144	2
256	196	2
289	1225	2
196	2500	2
25	400	2
0	256	2
0	121	2
1	25	2
9	289	2
1	0	2
64	1369	2
144	1681	2
225	169	2
441	4	2
400	121	2
144	100	2
169	121	2
400	676	2
289	961	2
81	144	2
81	0	2
361	169	2
361	729	2
121	576	2
81	400	2
100	784	2
49	529	2
36	100	2
225	324	2
324	289	2
196	64	2
225	289	2
361	225	2
169	1024	2
9	25	2
25	9	2
196	1225	2
225	1849	2
144	361	2
225	16	2
169	121	2
25	400	2
1	841	2
4	841	2
25	784	2
64	196	2
81	121	2
196	1296	2
256	1444	2
225	144	2
196	4	2
196	400	2
100	841	2
64	196	2
169	36	2
256	676	2
289	2401	2
225	1024	2
169	0	2
36	100	2
4	25	2
9	676	2
16	169	2
100	400	2
49	361	2
36	4	2
121	16	2
100	25	2
81	1	2
196	169	2
324	676	2
361	1225	2
625	1444	2
961	1225	2
784	1521	2
324	961	2
169	81	2
100	16	2
16	9	2
1	49	2
100	25	2
324	1225	2
225	2025	2
100	625	2
196	121	2
256	2601	2
169	4900	2
144	1089	2
196	1296	2
144	5184	2
25	3136	2
36	1681	2
144	2916	2
121	2304	2
64	529	2
144	529	2
196	1024	2
121	625	2
121	16	2
256	49	2
121	324	2
0	3025	2
16	5776	2
16	1681	2
100	144	2
25	1849	2
64	2500	2
196	3136	2
169	2401	2
169	784	2
361	729	2
484	1849	2
324	1521	2
289	324	2
529	484	2
784	1936	2
529	1089	2
289	1	2
289	64	2
100	25	2
0	100	2
0	9	2
64	100	2
64	100	2
9	196	2
64	1225	2
225	900	2
81	900	2
4	676	2
25	196	2
144	3025	2
169	3025	2
81	1089	2
81	484	2
121	144	2
225	0	2
225	36	2
144	64	2
49	576	2
49	2025	2
256	529	2
441	961	2
225	4356	2
100	2500	2
196	576	2
100	441	2
9	529	2
36	361	2
324	729	2
529	441	2
225	36	2
256	169	2
484	2116	2
225	256	2
9	256	2
1	169	2
36	1600	2
36	100	2
64	49	2
81	100	2
121	100	2
144	324	2
196	1369	2
324	729	2
256	484	2
49	256	2
49	289	2
169	3136	2
169	3249	2
36	1089	2
4	441	2
4	36	2
1	4489	2
25	5625	2
196	81	2
484	9216	2
484	11881	2
576	6889	2
576	5929	2
324	5329	2
49	361	2
16	1681	2
36	961	2
16	225	2
9	729	2
121	36	2
256	169	2
144	1	2
81	4	2
225	961	2
400	1681	2
225	1	2
169	676	2
289	9	2
361	2704	2
144	5329	2
64	4900	2
169	3721	2
256	2401	2
225	961	2
225	289	2
289	1	2
100	1369	2
64	4096	2
196	3025	2
256	625	2
100	49	2
36	169	2
36	25	2
9	25	2
9	0	2
1	64	2
121	1024	2
225	2704	2
169	2304	2
169	729	2
196	1156	2
100	2401	2
100	1600	2
324	1600	2
484	1156	2
324	9	2
225	36	2
225	1444	2
225	1089	2
256	49	2
324	441	2
256	49	2
16	169	2
16	784	2
1	324	2
64	16	2
9	400	2
0	400	2
49	25	2
100	196	2
81	49	2
324	144	2
900	841	2
961	1225	2
576	784	2
441	1521	2
361	3364	2
144	1600	2
25	256	2
16	1681	2
9	121	2
4	1	2
4	256	2
169	36	2
324	1369	2
169	1156	2
64	729	2
100	1849	2
225	3364	2
289	2401	2
196	1225	2
169	1024	2
144	441	2
144	64	2
256	64	2
225	4	2
100	256	2
64	1089	2
64	729	2
36	0	2
25	324	2
169	625	2
361	441	2
121	25	2
16	256	2
169	441	2
361	9	2
100	36	2
9	729	2
36	1444	2
100	169	2
64	49	2
25	16	2
36	16	2
49	36	2
121	144	2
324	961	2
625	1849	2
484	841	2
256	441	2
324	2401	2
400	6889	2
256	3249	2
81	16	2
100	400	2
81	361	2
16	900	2
36	196	2
196	441	2
225	1444	2
100	1225	2
121	1369	2
225	2601	2
169	2704	2
64	1369	2
121	625	2
361	576	2
400	81	2
225	64	2
100	49	2
49	1024	2
64	1296	2
169	900	2
225	289	2
144	0	2
49	169	2
25	196	2
25	1	2
25	16	2
64	49	2
169	169	2
196	256	2
169	16	2
289	81	2
324	36	2
144	144	2
81	841	2
100	729	2
121	4	2
81	169	2
100	225	2
169	729	2
169	1296	2
121	400	2
169	16	2
256	1	2
100	9	2
16	9	2
49	100	2
144	1024	2
81	2209	2
36	2500	2
81	1444	2
196	729	2
289	625	2
196	529	2
144	256	2
144	144	2
144	361	2
121	324	2
225	121	2
225	144	2
121	25	2
81	49	2
121	0	2
121	529	2
144	1521	2
256	1764	2
361	1849	2
196	1764	2
81	676	2
196	49	2
256	1764	2
49	2601	2
1	1296	2
1	256	2
25	144	2
49	961	2
196	729	2
400	729	2
484	625	2
289	256	2
144	196	2
100	676	2
64	784	2
100	36	2
225	0	2
169	576	2
49	1600	2
49	1444	2
196	1089	2
289	361	2
169	81	2
169	1156	2
289	400	2
256	484	2
64	441	2
1	1089	2
0	2809	2
0	529	2
36	100	2
144	1521	2
196	2916	2
121	1849	2
121	1444	2
256	2025	2
289	2116	2
256	900	2
324	144	2
529	225	2
400	961	2
169	1444	2
100	225	2
100	144	2
9	9	2
1	625	2
25	1225	2
64	961	2
100	625	2
196	1	2
196	1024	2
169	529	2
196	49	2
256	324	2
289	1	2
225	576	2
169	1444	2
196	484	2
225	169	2
169	1089	2
225	576	2
441	625	2
400	2209	2
81	3136	2
9	1089	2
49	9	2
81	81	2
16	81	2
25	49	2
100	4	2
169	625	2
121	2601	2
100	2916	2
81	900	2
64	0	2
100	529	2
225	361	2
324	49	2
225	324	2
144	169	2
121	1	2
25	676	2
0	1296	2
4	1	2
81	1156	2
81	1225	2
64	169	2
289	196	2
841	1764	2
576	2704	2
121	1024	2
49	121	2
121	16	2
196	576	2
225	576	2
400	16	2
400	144	2
196	4	2
144	324	2
196	81	2
49	64	2
1	64	2
0	256	2
25	625	2
64	16	2
121	256	2
324	144	2
361	3249	2
196	3969	2
100	2025	2
81	144	2
36	484	2
1	441	2
36	81	2
196	900	2
400	1	2
529	1849	2
576	729	2
324	529	2
81	2025	2
36	1600	2
121	3025	2
196	5184	2
121	2704	2
169	625	2
256	729	2
144	1764	2
49	1225	2
49	196	2
64	25	2
25	36	2
36	100	2
121	144	2
81	121	2
9	1	2
25	144	2
144	576	2
144	1936	2
144	2209	2
225	81	2
144	625	2
36	1444	2
100	1225	2
361	121	2
256	324	2
100	2116	2
225	2601	2
625	0	2
729	3249	2
361	3364	2
144	900	2
144	225	2
64	625	2
16	1369	2
25	1369	2
121	1225	2
144	1296	2
121	625	2
144	0	2
144	121	2
81	49	2
64	576	2
100	576	2
144	961	2
81	225	2
64	841	2
100	1296	2
144	121	2
121	3721	2
169	6084	2
196	3249	2
100	400	2
81	9	2
144	64	2
256	64	2
196	784	2
64	324	2
100	0	2
225	4	2
144	49	2
81	576	2
361	169	2
784	324	2
484	576	2
144	121	2
81	2500	2
36	3136	2
25	1156	2
100	9	2
256	2025	2
100	3721	2
9	2916	2
25	1024	2
144	400	2
81	484	2
16	16	2
64	169	2
225	4	2
225	324	2
144	784	2
144	1296	2
100	1156	2
25	441	2
16	16	2
121	9	2
196	121	2
225	49	2
361	169	2
484	784	2
225	289	2
4	441	2
0	1369	2
9	81	2
36	324	2
81	961	2
225	1600	2
256	1849	2
100	784	2
121	361	2
484	1024	2
676	1225	2
324	1	2
196	2025	2
361	1764	2
484	4	2
225	121	2
121	9	2
121	441	2
25	1225	2
64	961	2
289	1156	2
256	324	2
49	529	2
4	1521	2
4	16	2
9	2025	2
16	729	2
144	49	2
361	676	2
169	900	2
1	36	2
0	576	2
81	9	2
225	841	2
361	576	2
529	841	2
400	1849	2
144	1296	2
121	361	2
256	529	2
289	1156	2
196	576	2
121	25	2
36	484	2
36	196	2
121	1	2
256	121	2
196	121	2
49	0	2
25	0	2
144	49	2
169	16	2
49	9	2
144	36	2
400	196	2
324	900	2
81	100	2
64	36	2
144	81	2
100	361	2
49	16	2
169	196	2
441	2116	2
324	2209	2
144	225	2
36	4	2
9	225	2
9	1156	2
64	1600	2
225	1849	2
169	576	2
64	36	2
121	49	2
256	324	2
144	576	2
49	9	2
100	400	2
256	9	2
256	64	2
289	81	2
400	625	2
324	1764	2
169	1369	2
144	169	2
144	100	2
49	144	2
16	36	2
100	121	2
324	81	2
144	25	2
25	9	2
121	64	2
289	841	2
100	1225	2
25	961	2
81	841	2
49	81	2
9	484	2
64	625	2
256	36	2
289	1600	2
196	1521	2
256	256	2
400	36	2
256	49	2
100	441	2
100	100	2
121	3721	2
81	4096	2
100	1369	2
196	1296	2
144	2116	2
25	529	2
49	196	2
225	441	2
324	25	2
169	324	2
121	169	2
225	289	2
196	9	2
100	676	2
169	576	2
196	121	2
49	1156	2
25	256	2
121	64	2
256	49	2
144	25	2
196	16	2
289	484	2
144	1681	2
36	289	2
49	100	2
81	529	2
4	144	2
16	81	2
4	400	2
121	324	2
169	36	2
169	49	2
289	576	2
256	529	2
144	4	2
196	144	2
361	289	2
256	1600	2
100	196	2
100	49	2
169	225	2
81	676	2
49	400	2
144	1600	2
196	4225	2
196	4356	2
256	2916	2
400	2025	2
361	1600	2
121	441	2
121	256	2
289	1369	2
225	484	2
4	729	2
0	2500	2
64	1024	2
196	49	2
225	49	2
289	36	2
256	64	2
100	9	2
81	1	2
169	784	2
64	2809	2
1	961	2
0	0	2
121	0	2
169	4	2
81	289	2
225	841	2
441	16	2
225	256	2
49	144	2
100	121	2
196	81	2
144	1	2
121	9	2
289	256	2
324	1369	2
169	1024	2
169	1089	2
289	3136	2
169	4225	2
36	1089	2
49	25	2
169	100	2
169	1	2
81	4	2
121	25	2
144	64	2
49	729	2
64	625	2
256	0	2
256	196	2
36	9	2
16	0	2
196	3025	2
324	8649	2
196	3969	2
256	81	2
289	144	2
225	4	2
169	324	2
324	2025	2
361	2116	2
100	81	2
36	9	2
121	576	2
100	2025	2
16	361	2
49	1024	2
169	4489	2
100	4356	2
36	2916	2
81	1156	2
169	25	2
100	784	2
25	49	2
25	81	2
64	144	2
64	1024	2
81	1089	2
196	1681	2
324	2304	2
289	1369	2
361	1024	2
400	1764	2
144	1444	2
81	400	2
256	256	2
400	576	2
121	256	2
4	0	2
1	0	2
64	64	2
144	36	2
36	36	2
961	529	2
1296	1024	2
841	256	2
225	100	2
9	576	2
196	441	2
0	0	2
576	4	2
784	529	2
81	196	2
1	361	2
144	400	2
144	81	2
49	196	2
729	0	2
1600	25	2
484	256	2
441	81	2
1764	64	2
2025	676	2
1089	625	2
64	1	2
841	0	2
2809	961	2
3481	784	2
3721	0	2
196	36	2
2916	0	2
3600	9	2
441	0	2
256	361	2
1764	576	2
81	121	2
1296	81	2
9	1156	2
3969	2304	2
9216	1156	2
4761	961	2
121	1521	2
289	400	2
4	121	2
1521	121	2
3481	36	2
4356	16	2
5776	4	2
3969	441	2
729	900	2
0	121	2
400	16	2
1024	1	2
1849	49	2
1936	484	2
900	16	2
121	1024	2
36	961	2
64	36	2
576	64	2
4096	400	2
4356	64	2
1089	0	2
676	400	2
6561	900	2
3844	9	2
576	100	2
5929	256	2
1156	484	2
961	289	2
3025	784	2
1296	81	2
36	784	2
400	324	2
1849	841	2
1681	2025	2
900	676	2
625	25	2
2401	441	2
6084	1024	2
4096	256	2
900	121	2
64	841	2
49	676	2
900	1	2
2025	36	2
9	9	2
1156	100	2
784	576	2
1764	16	2
6889	256	2
10404	16	2
3481	81	2
4	16	2
1296	400	2
6724	169	2
11449	225	2
9604	1764	2
6241	2304	2
1681	729	2
1	484	2
1024	1024	2
2809	484	2
1225	1	2
324	49	2
2916	441	2
2209	121	2
1369	4	2
3364	144	2
3364	289	2
225	144	2
36	529	2
81	4	2
100	169	2
324	9	2
1024	196	2
576	1225	2
4	576	2
625	4	2
1225	169	2
729	1444	2
361	1024	2
1225	225	2
2401	441	2
529	484	2
1	9	2
64	49	2
841	4	2
625	121	2
64	1	2
841	49	2
576	4	2
121	0	2
0	121	2
4	9	2
25	841	2
36	484	2
361	0	2
3600	36	2
2500	484	2
256	324	2
324	289	2
2025	625	2
1156	100	2
9	121	2
529	0	2
529	729	2
0	729	2
36	100	2
169	121	2
1156	361	2
784	16	2
361	4	2
1089	961	2
256	1024	2
961	121	2
484	529	2
1849	225	2
10000	1296	2
16384	529	2
12321	529	2
2209	1444	2
1296	729	2
6400	25	2
4761	256	2
2116	729	2
400	64	2
0	0	2
36	361	2
289	841	2
1600	81	2
2209	0	2
625	121	2
0	36	2
81	196	2
1521	121	2
1681	49	2
1	4	2
2601	225	2
2401	81	2
1	64	2
1764	25	2
4900	81	2
6400	1444	2
2304	2116	2
36	400	2
9	81	2
225	625	2
900	441	2
3249	0	2
4900	49	2
324	361	2
3481	4	2
5041	64	2
225	196	2
961	625	2
1849	4	2
2025	36	2
625	256	2
324	676	2
1849	169	2
1089	361	2
0	1521	2
729	784	2
729	16	2
1296	169	2
1369	1024	2
0	256	2
1600	16	2
2500	16	2
1681	196	2
289	4	2
144	36	1
2025	36	1
2809	196	1
441	36	1
676	100	1
6724	529	1
9604	169	1
6400	121	1
5625	64	1
5041	144	1
3969	100	1
3969	0	1
2025	144	1
169	529	1
81	144	1
441	144	1
324	1089	1
81	1156	1
64	169	1
676	100	1
49	25	1
196	400	1
1	144	1
81	25	1
1296	729	1
9	256	1
3721	25	1
3844	484	1
0	900	1
3721	81	1
2809	1	1
121	256	1
2500	256	1
1156	36	1
25	9	1
49	324	1
169	169	1
49	0	1
5476	81	1
10000	625	1
1369	441	1
1936	64	1
5625	361	1
1225	729	1
484	225	1
1849	225	1
961	1444	1
225	1296	1
16	1	1
361	289	1
961	100	1
1	576	1
1849	9	1
3481	16	1
1849	25	1
1089	4	1
12321	121	1
4356	225	1
2500	1296	1
11881	484	1
6561	81	1
625	324	1
4	256	1
900	0	1
7225	9	1
11881	324	1
5776	100	1
961	0	1
169	289	1
196	961	1
121	25	1
16	441	1
196	121	1
100	9	1
729	0	1
3844	121	1
2809	1156	1
36	841	1
1089	49	1
3249	121	1
3249	961	1
2209	961	1
1764	400	1
1369	900	1
676	1521	1
81	361	1
289	16	1
4356	441	1
8281	484	1
2601	144	1
169	576	1
81	25	1
289	400	1
100	4	1
441	225	1
1764	0	1
3249	36	1
4225	4	1
2401	576	1
576	2025	1
64	900	1
441	169	1
81	441	1
4900	400	1
12100	49	1
5476	225	1
0	64	1
1444	400	1
1156	121	1
529	100	1
529	256	1
400	49	1
144	1	1
25	169	1
81	361	1
529	1	1
576	4	1
49	361	1
9	961	1
729	361	1
6241	441	1
10404	1225	1
7921	361	1
6724	49	1
5625	4	1
1521	196	1
1	81	1
784	1	1
2116	256	1
625	841	1
16	144	1
49	49	1
16	9	1
100	289	1
4	25	1
961	0	1
1444	121	1
196	100	1
16	1	1
36	196	1
225	841	1
784	100	1
196	25	1
625	169	1
2916	729	1
3600	256	1
3249	256	1
1444	729	1
64	400	1
121	4	1
1369	64	1
1156	784	1
49	676	1
1	100	1
121	256	1
225	784	1
36	361	1
289	4	1
1225	0	1
1156	25	1
900	4	1
625	36	1
36	576	1
64	484	1
484	0	1
1764	16	1
2601	841	1
4624	676	1
7225	49	1
5476	0	1
1600	9	1
16	121	1
361	25	1
2500	529	1
6400	900	1
6084	16	1
2809	576	1
324	1	1
729	256	1
3600	9	1
3481	4	1
1225	625	1
400	961	1
676	256	1
1849	484	1
3969	1521	1
5625	900	1
2500	169	1
81	529	1
144	784	1
100	100	1
529	0	1
1936	100	1
169	144	1
729	64	1
1225	361	1
2601	625	1
4624	121	1
841	4	1
361	4	1
900	196	1
1156	196	1
2401	25	1
3136	1	1
2209	1	1
2116	0	1
3364	169	1
2401	900	1
9	961	1
2401	121	1
3481	49	1
1024	9	1
0	169	1
676	256	1
1369	16	1
841	1	1
256	100	1
289	169	1
484	121	1
441	256	1
400	625	1
49	625	1
4624	324	1
5041	144	1
0	64	1
2500	1	1
1089	4	1
196	1	1
2116	49	1
4900	49	1
4900	121	1
4096	289	1
784	289	1
961	81	1
8464	36	1
9025	64	1
784	9	1
1024	121	1
4096	324	1
6084	961	1
2116	1156	1
49	900	1
625	841	1
121	576	1
25	169	1
225	4	1
1521	4	1
3136	16	1
1024	256	1
256	324	1
784	256	1
144	289	1
2601	324	1
2601	81	1
2500	9	1
3600	196	1
1849	676	1
225	225	1
144	0	1
676	36	1
1369	121	1
529	0	1
324	25	1
10816	36	1
29584	121	1
8836	64	1
576	121	1
900	361	1
49	361	1
1	64	1
576	121	1
2401	729	1
6889	729	1
7744	441	1
3481	676	1
841	841	1
676	289	1
2401	36	1
5476	144	1
5625	196	1
2704	9	1
3136	64	1
5776	64	1
841	49	1
1600	121	1
2704	100	1
1024	100	1
289	289	1
144	25	1
361	25	1
225	484	1
121	1156	1
1849	900	1
3364	900	1
1521	625	1
1	169	1
1089	196	1
2304	324	1
1521	9	1
289	441	1
0	1	1
4	529	1
81	36	1
441	169	1
36	16	1
900	144	1
1936	121	1
1024	100	1
576	729	1
225	1024	1
16	169	1
324	100	1
1849	900	1
1936	676	1
961	64	1
576	169	1
49	361	1
676	121	1
900	49	1
0	169	1
361	100	1
25	25	1
289	36	1
225	81	1
16	36	1
144	225	1
1600	121	1
1521	324	1
625	841	1
2116	100	1
1296	4	1
1225	100	1
4761	144	1
900	196	1
900	1296	1
4225	2500	1
4356	900	1
3249	169	1
1681	484	1
49	484	1
196	4	1
9	1	1
484	169	1
961	49	1
169	1	1
81	169	1
900	484	1
1296	121	1
25	1	1
729	25	1
1024	196	1
1089	256	1
1764	64	1
676	64	1
64	225	1
1296	169	1
1849	100	1
900	144	1
441	121	1
529	49	1
1089	49	1
841	169	1
81	324	1
100	169	1
729	9	1
1936	9	1
2704	121	1
3025	100	1
2916	25	1
1521	25	1
324	81	1
256	144	1
4356	256	1
11664	361	1
15129	361	1
5776	289	1
49	169	1
3721	16	1
4356	4	1
1521	400	1
256	729	1
0	81	1
144	0	1
49	100	1
0	144	1
361	4	1
1681	144	1
2025	961	1
484	484	1
1369	4	1
6724	64	1
8100	441	1
2809	121	1
1	0	1
196	64	1
0	361	1
64	25	1
441	0	1
961	529	1
324	784	1
225	121	1
900	100	1
2025	529	1
1089	144	1
64	121	1
784	64	1
225	121	1
121	81	1
121	49	1
9	961	1
100	1024	1
256	1	1
144	81	1
2601	676	1
3481	1369	1
2500	256	1
1156	196	1
16	625	1
1521	25	1
900	144	1
1	16	1
36	400	1
0	9	1
64	25	1
441	289	1
324	900	1
196	289	1
784	225	1
1225	1024	1
484	841	1
625	121	1
2809	100	1
4096	256	1
1369	9	1
4	729	1
64	256	1
1	100	1
0	121	1
49	4	1
9	144	1
64	256	1
169	16	1
225	196	1
1681	1849	1
1225	1369	1
225	16	1
100	9	1
1296	144	1
1444	144	1
196	4	1
121	256	1
144	961	1
16	169	1
324	1	1
625	529	1
4	729	1
100	64	1
144	576	1
121	64	1
9	729	1
900	289	1
3969	900	1
4356	2704	1
961	1369	1
49	169	1
64	324	1
36	576	1
1	0	1
16	289	1
4	49	1
529	441	1
1225	16	1
529	4	1
169	196	1
2025	121	1
2025	400	1
64	625	1
361	25	1
144	9	1
81	324	1
121	36	1
9	400	1
2601	441	1
8281	361	1
6084	2116	1
1764	2704	1
484	729	1
784	324	1
1681	1089	1
2401	1024	1
3481	100	1
3364	25	1
1225	121	1
81	16	1
100	4	1
441	484	1
1	841	1
1936	1	1
5476	169	1
3136	324	1
121	1024	1
289	49	1
441	1	1
400	961	1
1225	1369	1
2304	81	1
1156	64	1
961	729	1
2500	144	1
2209	144	1
121	81	1
4	4	1
256	196	1
0	100	1
529	400	1
100	900	1
25	49	1
784	0	1
2401	441	1
2401	361	1
2500	121	1
1600	441	1
361	9	1
0	25	1
1024	36	1
1444	484	1
9	841	1
1936	49	1
1296	25	1
1	576	1
36	1849	1
0	676	1
196	324	1
2304	1089	1
4624	841	1
2401	100	1
400	100	1
100	324	1
225	25	1
1225	81	1
3600	100	1
2601	676	1
144	64	1
324	0	1
256	484	1
4	729	1
144	4	1
256	25	1
529	1024	1
729	676	1
625	4	1
529	64	1
625	441	1
625	9	1
484	81	1
361	121	1
361	841	1
36	289	1
196	169	1
100	1225	1
169	900	1
484	100	1
196	484	1
81	36	1
3249	196	1
7056	36	1
3721	144	1
784	0	1
256	1	1
256	36	1
100	289	1
2304	1369	1
4489	484	1
5476	169	1
5184	961	1
1444	784	1
225	9	1
784	9	1
676	400	1
900	196	1
121	9	1
484	36	1
1849	361	1
2116	64	1
2025	0	1
729	256	1
169	729	1
256	169	1
2304	121	1
9604	1156	1
5929	1089	1
1444	81	1
484	9	1
9	144	1
529	25	1
100	16	1
1369	144	1
2116	1089	1
16	676	1
324	225	1
9	841	1
400	676	1
49	196	1
64	729	1
841	169	1
1225	900	1
676	25	1
961	361	1
900	81	1
0	289	1
576	36	1
1681	484	1
3600	1156	1
2304	64	1
49	81	1
1600	225	1
3481	1089	1
256	324	1
1296	144	1
1225	784	1
36	784	1
2025	81	1
2500	100	1
729	529	1
36	121	1
81	64	1
529	1	1
169	289	1
100	9	1
49	81	1
256	81	1
676	400	1
1225	4	1
2500	4	1
1681	400	1
324	529	1
169	9	1
256	25	1
1024	529	1
2704	361	1
2601	16	1
729	169	1
49	576	1
441	25	1
16	64	1
169	256	1
9	784	1
361	0	1
784	169	1
289	144	1
121	484	1
289	49	1
225	256	1
36	1521	1
1	625	1
36	4	1
576	225	1
900	1225	1
441	289	1
441	9	1
1024	625	1
841	1089	1
441	16	1
441	25	1
625	225	1
144	196	1
0	49	1
9	121	1
9	9	1
49	16	1
4	25	1
64	81	1
100	729	1
121	196	1
441	4	1
1089	361	1
1089	729	1
961	100	1
1156	144	1
1156	1156	1
484	729	1
144	9	1
100	36	1
36	289	1
25	4	1
49	169	1
4	16	1
0	529	1
100	25	1
49	36	1
121	576	1
529	1156	1
676	25	1
1089	0	1
1764	484	1
1296	484	1
529	81	1
361	400	1
256	1156	1
25	144	1
0	81	1
9	121	1
4	1156	1
25	225	1
4	36	1
49	64	1
64	324	1
16	36	1
100	49	1
361	625	1
256	81	1
144	961	1
289	676	1
441	49	1
256	169	1
169	1	1
225	144	1
169	676	1
16	169	1
9	25	1
64	529	1
1	441	1
9	0	1
9	16	1
196	961	1
225	961	1
289	49	1
784	121	1
900	441	1
324	0	1
81	36	1
225	729	1
324	1936	1
81	196	1
16	16	1
81	361	1
64	961	1
1	144	1
25	256	1
100	1024	1
49	289	1
100	4	1
400	100	1
576	961	1
289	441	1
289	4	1
529	121	1
441	529	1
121	81	1
100	0	1
225	441	1
144	484	1
9	100	1
4	441	1
64	16	1
36	121	1
1	49	1
25	16	1
121	225	1
81	144	1
121	64	1
361	900	1
400	1681	1
225	361	1
289	64	1
484	625	1
256	529	1
49	1	1
81	9	1
100	225	1
9	81	1
0	64	1
81	1	1
144	196	1
9	4	1
1	16	1
100	441	1
169	1225	1
121	256	1
256	81	1
576	841	1
400	676	1
169	0	0
289	49	0
529	1156	0
324	784	0
144	9	0
256	64	0
169	484	0
4	81	0
4	4	0
81	225	0
121	900	0
9	121	0
25	0	0
169	196	0
144	100	0
36	441	0
64	625	0
196	36	0
196	289	0
144	81	0
289	576	0
289	1089	0
144	121	0
81	1	0
144	441	0
36	841	0
1	81	0
25	16	0
225	441	0
169	324	0
49	9	0
121	4	0
256	144	0
144	49	0
81	0	0
289	324	0
400	1089	0
256	289	0
256	9	0
400	225	0
225	324	0
25	1	0
64	25	0
169	1024	0
36	784	0
1	9	0
1	36	0
100	144	0
169	100	0
256	16	0
576	625	0
529	1681	0
196	441	0
169	4	0
361	256	0
289	324	0
36	144	0
25	484	0
144	49	0
100	361	0
16	36	0
9	324	0
36	4	0
4	144	0
25	100	0
256	1024	0
441	2116	0
289	625	0
361	100	0
576	729	0
400	1089	0
121	196	0
144	169	0
225	900	0
64	529	0
9	0	0
64	0	0
100	196	0
49	9	0
36	196	0
121	4	0
144	256	0
64	9	0
169	81	0
484	144	0
400	529	0
144	81	0
196	121	0
361	784	0
169	441	0
49	9	0
81	64	0
81	625	0
9	256	0
9	4	0
100	289	0
100	841	0
16	16	0
25	81	0
225	289	0
361	841	0
121	1	0
121	196	0
324	100	0
324	361	0
196	1	0
289	49	0
289	961	0
64	729	0
36	196	0
169	729	0
169	1225	0
36	169	0
64	0	0
196	400	0
169	625	0
100	36	0
256	16	0
400	441	0
225	225	0
100	25	0
169	1	0
169	144	0
36	4	0
25	81	0
100	25	0
100	361	0
25	81	0
49	36	0
169	729	0
121	784	0
36	25	0
121	9	0
169	400	0
81	225	0
100	0	0
324	25	0
400	144	0
121	100	0
81	324	0
289	196	0
289	1024	0
49	25	0
25	49	0
169	484	0
169	1156	0
100	225	0
256	484	0
484	2304	0
225	1296	0
49	9	0
64	16	0
121	400	0
100	121	0
225	1	0
484	361	0
400	961	0
64	144	0
49	4	0
169	324	0
100	361	0
16	1	0
49	9	0
121	81	0
64	16	0
49	100	0
196	25	0
144	49	0
25	0	0
25	36	0
144	81	0
144	441	0
100	196	0
225	256	0
256	900	0
121	729	0
81	64	0
225	121	0
225	576	0
49	289	0
36	25	0
169	121	0
196	289	0
81	0	0
100	36	0
289	289	0
289	900	0
196	256	0
361	196	0
484	676	0
289	324	0
169	0	0
225	49	0
169	729	0
9	324	0
1	0	0
64	49	0
121	324	0
36	64	0
81	9	0
196	361	0
81	625	0
16	64	0
121	9	0
324	361	0
289	225	0
144	64	0
121	121	0
81	25	0
49	64	0
64	1	0
225	25	0
196	289	0
100	81	0
144	49	0
256	625	0
121	841	0
49	100	0
121	81	0
225	676	0
144	529	0
169	16	0
441	49	0
324	361	0
36	100	0
9	1	0
121	144	0
169	400	0
49	36	0
36	1	0
121	196	0
144	484	0
144	100	0
196	121	0
169	529	0
121	484	0
169	64	0
144	16	0
36	144	0
49	256	0
169	196	0
144	169	0
16	196	0
49	169	0
289	64	0
256	64	0
169	144	0
324	144	0
484	64	0
225	64	0
144	121	0
256	100	0
256	64	0
121	121	0
100	289	0
169	324	0
81	289	0
25	256	0
144	196	0
324	121	0
121	81	0
16	100	0
64	100	0
121	81	0
64	100	0
64	121	0
144	81	0
100	25	0
1	25	0
25	100	0
169	81	0
169	49	0
121	169	0
225	225	0
225	49	0
64	1	0
144	100	0
529	324	0
484	225	0
144	196	0
100	225	0
256	121	0
196	49	0
64	81	0
36	121	0
100	81	0
64	121	0
9	256	0
121	121	0
961	4	0
1444	49	0
676	441	0
225	484	0
81	289	0
9	361	0
16	400	0
64	144	0
36	81	0
1	225	0
25	289	0
121	81	0
16	49	0
0	36	0
9	0	0
121	0	0
144	121	0
100	441	0
121	441	0
100	256	0
49	225	0
100	225	0
289	81	0
361	49	0
256	121	0
196	144	0
225	36	0
121	9	0
100	121	0
289	256	0
324	144	0
81	81	0
25	196	0
144	256	0
196	256	0
49	324	0
49	324	0
256	225	0
324	121	0
144	100	0
144	81	0
256	49	0
169	64	0
49	121	0
121	144	0
289	100	0
144	81	0
64	121	0
225	144	0
289	100	0
64	121	0
49	196	0
225	169	0
256	100	0
81	121	0
100	169	0
256	144	0
100	100	0
36	121	0
121	144	0
256	121	0
100	144	0
25	169	0
36	169	0
64	169	0
36	256	0
100	289	0
361	100	0
324	16	0
100	25	0
81	100	0
169	49	0
81	16	0
49	64	0
196	144	0
324	144	0
169	196	0
81	225	0
196	144	0
225	81	0
49	144	0
1	64	0
25	16	0
100	169	0
121	361	0
121	36	0
196	0	0
361	289	0
289	625	0
121	9	0
144	64	0
169	81	0
100	256	0
169	81	0
400	484	0
484	1764	0
225	961	0
121	100	0
256	361	0
225	900	0
64	144	0
49	4	0
100	225	0
64	625	0
25	49	0
121	0	0
361	144	0
289	196	0
100	0	0
121	9	0
169	289	0
64	81	0
49	64	0
121	1	0
121	169	0
49	49	0
100	4	0
289	441	0
225	729	0
100	64	0
196	25	0
256	576	0
100	484	0
16	0	0
25	4	0
36	49	0
0	1	0
25	16	0
289	256	0
361	1024	0
121	144	0
64	16	0
169	256	0
169	729	0
100	100	0
196	121	0
361	1156	0
144	841	0
64	25	0
225	100	0
400	1089	0
225	625	0
144	4	0
256	64	0
225	400	0
64	49	0
81	9	0
196	225	0
121	576	0
16	25	0
49	4	0
256	144	0
225	81	0
49	196	0
81	196	0
121	64	0
64	144	0
49	0	0
169	64	0
196	529	0
100	324	0
196	196	0
400	1089	0
225	1089	0
81	64	0
121	16	0
289	529	0
256	400	0
121	0	0
144	9	0
100	324	0
4	64	0
1	9	0
144	225	0
289	729	0
169	81	0
225	0	0
361	441	0
169	625	0
36	36	0
100	81	0
225	1024	0
81	625	0
16	1	0
81	0	0
121	225	0
81	36	0
196	16	0
441	196	0
289	841	0
49	169	0
49	4	0
225	400	0
169	441	0
16	144	0
16	484	0
100	36	0
64	169	0
0	36	0
1	9	0
81	361	0
169	400	0
289	144	0
529	961	0
400	1681	0
169	324	0
169	64	0
361	841	0
256	1225	0
100	144	0
169	49	0
256	529	0
81	256	0
16	16	0
121	1	0
289	256	0
121	9	0
64	81	0
196	81	0
289	576	0
225	100	0
256	16	0
324	529	0
169	576	0
36	4	0
100	49	0
289	1156	0
196	784	0
64	4	0
121	1	0
121	100	0
16	0	0
25	49	0
256	225	0
196	676	0
1	1	0
0	256	0
144	144	0
225	625	0
49	16	0
49	169	0
169	225	0
225	625	0
256	169	0
484	729	0
484	1936	0
196	729	0
100	36	0
169	400	0
169	729	0
49	36	0
100	1	0
256	361	0
121	576	0
25	36	0
81	25	0
196	441	0
64	121	0
16	64	0
144	0	0
256	289	0
169	64	0
144	25	0
225	16	0
169	225	0
64	25	0
121	49	0
324	900	0
196	900	0
64	36	0
81	16	0
121	400	0
25	225	0
25	0	0
169	144	0
196	676	0
49	144	0
49	0	0
256	361	0
324	729	0
64	4	0
64	324	0
256	64	0
256	529	0
169	64	0
256	289	0
400	1681	0
196	729	0
81	0	0
169	64	0
169	729	0
36	169	0
49	9	0
196	196	0
196	625	0
49	81	0
100	4	0
225	361	0
100	361	0
9	0	0
64	0	0
121	196	0
16	16	0
1	361	0
25	144	0
196	121	0
196	64	0
196	16	0
361	81	0
324	576	0
196	225	0
256	256	0
361	1369	0
169	1296	0
64	144	0
169	121	0
289	676	0
196	289	0
169	1	0
324	144	0
225	576	0
16	9	0
4	49	0
144	289	0
225	900	0
36	0	0
25	196	0
196	169	0
225	676	0
121	81	0
256	361	0
441	1764	0
196	576	0
64	4	0
196	144	0
196	961	0
9	144	0
4	25	0
169	196	0
256	729	0
144	36	0
144	121	0
256	1	0
100	4	0
9	289	0
16	676	0
64	169	0
36	4	0
4	9	0
81	676	0
225	1764	0
169	361	0
225	4	0
400	729	0
361	1600	0
144	289	0
169	121	0
256	1225	0
121	1764	0
25	676	0
64	144	0
121	36	0
64	529	0
100	256	0
361	256	0
324	1849	0
121	676	0
169	121	0
484	1225	0
361	1156	0
49	100	0
144	144	0
676	1521	0
361	3025	0
25	361	0
49	4	0
225	64	0
64	0	0
4	36	0
36	9	0
16	121	0
0	3481	0
36	1521	0
169	2704	0
81	6084	0
16	484	0
121	256	0
225	1	0
49	961	0
4	1600	0
121	1849	0
400	2209	0
400	1444	0
441	225	0
729	1	0
625	16	0
121	64	0
4	100	0
25	49	0
81	576	0
81	1089	0
400	361	0
784	5184	0
441	2704	0
81	9	0
81	4	0
169	1089	0
25	961	0
0	1	0
64	4	0
324	1089	0
289	1764	0
400	1024	0
625	841	0
529	289	0
169	121	0
121	64	0
144	256	0
9	36	0
1	625	0
49	1849	0
121	2601	0
36	4489	0
36	3364	0
196	25	0
196	1024	0
16	1024	0
16	1225	0
169	2025	0
144	2209	0
9	2304	0
9	3481	0
169	5329	0
225	3364	0
25	784	0
1	484	0
64	400	0
81	144	0
36	1936	0
64	1024	0
81	0	0
64	9	0
144	169	0
361	64	0
225	144	0
36	361	0
144	484	0
484	3481	0
576	2500	0
576	1296	0
784	2601	0
625	4761	0
289	1681	0
225	100	0
324	324	0
144	100	0
9	484	0
36	225	0
196	529	0
100	169	0
4	961	0
16	2401	0
81	289	0
36	121	0
64	225	0
169	36	0
81	576	0
1	2209	0
4	1296	0
121	625	0
64	1024	0
1	1369	0
16	25	0
484	3025	0
625	4624	0
100	529	0
25	16	0
81	1156	0
81	2401	0
169	2401	0
529	5625	0
529	8100	0
144	3844	0
36	36	0
49	81	0
64	324	0
36	1296	0
289	2704	0
784	4900	0
324	2500	0
4	169	0
4	2809	0
121	900	0
144	81	0
121	676	0
256	121	0
324	576	0
169	625	0
169	196	0
289	676	0
169	1521	0
81	484	0
256	144	0
841	400	0
729	9	0
169	0	0
25	49	0
4	0	0
1	121	0
25	841	0
400	3721	0
361	4624	0
36	1089	0
4	81	0
100	529	0
196	784	0
100	49	0
121	729	0
225	121	0
100	361	0
64	400	0
324	1369	0
784	8464	0
484	3600	0
121	144	0
81	729	0
49	144	0
1	484	0
36	576	0
256	100	0
196	1024	0
36	100	0
36	196	0
81	2209	0
16	729	0
1	121	0
64	25	0
144	100	0
121	1	0
169	169	0
324	64	0
169	9	0
144	729	0
361	2304	0
324	1089	0
49	0	0
25	196	0
121	16	0
144	400	0
144	1521	0
441	1296	0
961	361	0
576	81	0
64	81	0
1	1296	0
49	16	0
121	1936	0
49	2025	0
64	676	0
169	1849	0
81	5329	0
16	1849	0
81	25	0
121	169	0
36	484	0
64	1369	0
256	400	0
324	121	0
225	676	0
256	289	0
361	400	0
289	4096	0
169	6400	0
169	1849	0
225	324	0
36	16	0
4	2025	0
121	2500	0
289	144	0
196	9	0
144	121	0
121	361	0
36	529	0
0	1156	0
1	1296	0
64	36	0
121	1369	0
64	1521	0
169	289	0
289	900	0
100	3136	0
9	3721	0
81	2500	0
256	1521	0
144	576	0
169	0	0
576	36	0
676	0	0
225	289	0
81	900	0
169	81	0
100	144	0
16	441	0
81	484	0
324	1024	0
324	1521	0
144	841	0
169	676	0
225	676	0
100	144	0
144	9	0
400	49	0
361	400	0
100	1600	0
16	1600	0
4	1225	0
0	729	0
1	121	0
16	1936	0
9	729	0
25	81	0
169	324	0
324	1	0
289	16	0
441	169	0
729	1225	0
625	1369	0
324	841	0
324	529	0
361	49	0
121	81	0
49	0	0
169	100	0
196	36	0
16	256	0
1	256	0
49	2916	0
100	4900	0
100	6241	0
225	6561	0
361	3025	0
324	144	0
144	961	0
16	5929	0
9	8464	0
9	4489	0
25	1024	0
100	49	0
196	0	0
121	196	0
36	484	0
49	4	0
81	361	0
16	2704	0
16	6724	0
169	2916	0
256	16	0
121	576	0
169	25	0
324	361	0
289	961	0
144	1369	0
144	729	0
169	25	0
196	144	0
196	169	0
289	81	0
400	144	0
529	3721	0
576	4096	0
361	900	0
100	225	0
25	121	0
64	100	0
121	900	0
100	0	0
64	2401	0
81	2809	0
81	484	0
64	100	0
25	64	0
49	9	0
121	0	0
169	441	0
144	900	0
100	169	0
81	9	0
121	4	0
144	324	0
144	9	2
121	625	2
81	324	2
100	121	2
169	2500	2
225	5041	2
169	2704	2
225	225	2
289	169	2
196	81	2
121	256	2
169	729	2
196	676	2
100	361	2
36	0	2
100	49	2
324	4	2
256	49	2
196	1	2
225	4	2
100	1600	2
9	3249	2
9	961	2
16	324	2
36	961	2
169	576	2
361	49	2
361	36	2
256	361	2
121	169	2
64	16	2
49	64	2
1	484	2
0	1296	2
121	676	2
400	36	2
289	4	2
144	4	2
81	256	2
100	1521	2
144	1089	2
324	25	2
441	324	2
225	1156	2
121	1089	2
121	36	2
64	961	2
49	2401	2
64	1600	2
25	36	2
1	676	2
1	144	2
144	484	2
484	676	2
324	25	2
196	16	2
361	1089	2
625	3364	2
484	2401	2
529	529	2
529	576	2
225	1024	2
81	400	2
196	441	2
324	1024	2
36	529	2
4	225	2
1	400	2
25	64	2
0	400	2
1	1225	2
169	225	2
289	144	2
169	576	2
196	289	2
256	16	2
49	961	2
1	1849	2
100	81	2
256	1600	2
144	2500	2
121	841	2
324	225	2
289	289	2
81	529	2
121	729	2
400	784	2
576	121	2
289	16	2
169	121	2
169	2209	2
81	6889	2
36	8649	2
169	2401	2
256	441	2
81	1600	2
49	484	2
100	324	2
100	49	2
64	625	2
64	1849	2
121	676	2
121	49	2
49	1296	2
9	3249	2
49	2500	2
256	9	2
225	3025	2
81	2209	2
144	784	2
225	1600	2
121	1681	2
49	900	2
169	2500	2
361	5625	2
225	2209	2
144	196	2
169	1764	2
36	196	2
0	625	2
100	1369	2
529	841	2
289	36	2
9	36	2
36	144	2
196	1600	2
144	1849	2
121	225	2
289	81	2
441	4	2
324	9	2
289	9	2
441	4	2
324	400	2
64	4225	2
81	5041	2
256	100	2
144	2209	2
16	3481	2
36	1764	2
64	841	2
1	196	2
4	100	2
25	16	2
144	400	2
64	64	2
81	361	2
441	256	2
676	121	2
289	529	2
196	361	2
289	196	2
196	121	2
36	196	2
64	144	2
196	3481	2
100	3844	2
49	1156	2
49	169	2
49	49	2
9	64	2
81	100	2
576	1024	2
625	4225	2
144	2809	2
100	576	2
324	441	2
256	49	2
64	2500	2
49	3600	2
121	64	2
36	2304	2
0	900	2
4	400	2
36	784	2
16	784	2
64	256	2
196	25	2
225	0	2
100	0	2
225	1296	2
529	7225	2
441	4225	2
225	81	2
361	64	2
529	2116	2
289	1849	2
100	0	2
169	324	2
196	16	2
9	256	2
0	4	2
81	361	2
121	841	2
25	1849	2
81	841	2
361	784	2
324	2704	2
169	324	2
256	16	2
324	1156	2
100	1681	2
1	49	2
64	25	2
169	1	2
49	441	2
36	900	2
169	144	2
225	2500	2
81	2401	2
49	729	2
100	484	2
49	625	2
4	169	2
49	289	2
100	2401	2
16	3364	2
16	1156	2
289	324	2
441	121	2
169	289	2
121	1225	2
361	225	2
324	25	2
144	400	2
256	441	2
676	81	2
324	784	2
49	25	2
100	0	2
196	484	2
1	81	2
25	961	2
49	1024	2
324	25	2
225	676	2
256	729	2
484	1764	2
484	2601	2
225	900	2
256	361	2
441	1369	2
196	676	2
9	25	2
9	0	2
64	361	2
36	144	2
16	64	2
36	25	2
36	169	2
4	81	2
36	3136	2
289	961	2
400	1089	2
144	2025	2
144	729	2
289	961	2
225	576	2
36	121	2
36	576	2
256	4	2
289	576	2
256	1296	2
441	3721	2
400	4761	2
81	1521	2
36	49	2
196	121	2
196	529	2
100	121	2
225	4	2
441	144	2
100	144	2
1	36	2
1	1	2
121	1089	2
121	1089	2
81	36	2
121	289	2
121	225	2
36	1024	2
64	196	2
361	1681	2
361	4624	2
64	1521	2
81	49	2
400	9	2
400	0	2
225	49	2
400	225	2
400	1089	2
81	64	2
16	441	2
169	400	2
441	4	2
169	256	2
64	841	2
169	2209	2
81	2500	2
0	441	2
1	25	2
144	169	2
64	1369	2
0	2209	2
100	16	2
441	529	2
196	9	2
64	4	2
324	3025	2
784	8649	2
400	4489	2
100	441	2
100	0	2
81	144	2
16	196	2
81	81	2
289	2025	2
144	2116	2
9	25	2
49	49	2
144	729	2
16	1369	2
16	1	2
0	441	2
49	576	2
144	324	2
324	324	2
529	2809	2
324	841	2
100	196	2
225	324	2
400	324	2
169	1849	2
49	625	2
144	196	2
256	676	2
49	484	2
9	256	2
100	484	2
225	121	2
100	225	2
64	36	2
225	1024	2
225	1225	2
144	25	2
400	1	2
841	361	2
361	289	2
36	400	2
100	576	2
400	196	2
289	169	2
121	529	2
169	256	2
121	100	2
9	169	2
49	676	2
289	3481	2
169	4356	2
4	2401	2
9	1764	2
196	729	2
169	196	2
9	3600	2
0	4225	2
36	784	2
64	1	2
25	16	2
81	64	2
196	729	2
225	1600	2
324	4096	2
529	10000	2
441	9216	2
169	1521	2
144	441	2
144	1600	2
9	1296	2
1	1600	2
64	576	2
196	49	2
100	100	2
49	64	2
256	484	2
256	49	2
36	1681	2
64	2601	2
324	121	2
196	16	2
36	1	2
289	841	2
841	5476	2
361	6400	2
4	1225	2
4	9	2
169	121	2
225	1225	2
289	1681	2
576	3249	2
441	5184	2
81	3136	2
36	1369	2
256	1444	2
256	441	2
36	1764	2
1	10404	2
49	7056	2
81	625	2
1	441	2
9	1521	2
121	64	2
100	289	2
64	0	2
196	100	2
256	3844	2
81	5041	2
121	1521	2
441	1089	2
400	1225	2
49	225	2
81	36	2
324	1521	2
169	2500	2
16	121	2
49	16	2
144	1849	2
81	729	2
9	1024	2
144	1600	2
441	1225	2
324	2601	2
324	400	2
529	2025	2
361	3481	2
121	729	2
196	729	2
441	3969	2
196	6241	2
49	3136	2
121	529	2
144	4	2
9	324	2
1	196	2
100	16	2
100	4	2
1	1225	2
0	1296	2
169	81	2
196	324	2
16	225	2
25	529	2
324	324	2
361	1681	2
121	529	2
121	625	2
361	2401	2
361	1936	2
225	729	2
256	1681	2
169	1936	2
36	0	2
64	900	2
289	25	2
289	1156	2
100	1521	2
81	484	2
169	784	2
144	625	2
49	1	2
36	441	2
36	900	2
36	784	2
64	400	2
196	64	2
225	0	2
144	16	2
289	1	2
529	484	2
361	729	2
169	529	2
225	529	2
225	400	2
49	49	2
1	9	2
121	256	2
196	2116	2
25	1936	2
0	225	2
64	16	2
144	81	2
49	1936	2
64	784	2
400	2704	2
324	9801	2
81	3600	2
196	576	2
576	1089	2
400	1089	2
169	400	2
256	484	2
441	1369	2
169	1089	2
100	196	2
400	121	2
441	529	2
144	484	2
121	256	2
289	625	2
144	169	2
4	841	2
1	3969	2
9	5625	2
1	5625	2
36	3364	2
9	289	2
9	121	2
36	256	2
1	324	2
400	324	2
729	256	2
400	16	2
324	100	2
676	169	2
676	1156	2
400	49	2
529	81	2
729	361	2
225	676	2
4	100	2
36	16	2
121	2209	2
9	5041	2
1	3481	2
9	3249	2
121	4900	2
81	2601	2
36	484	2
121	196	2
100	0	2
64	841	2
196	441	2
441	324	2
256	841	2
144	576	2
324	1764	2
441	3249	2
196	1225	2
121	9	2
289	121	2
225	100	2
4	324	2
25	100	2
289	196	2
256	64	2
25	729	2
81	1089	2
441	64	2
289	400	2
9	100	2
0	324	2
16	121	2
36	529	2
121	25	2
400	361	2
361	1	2
36	81	2
4	1521	2
121	841	2
121	289	2
49	196	2
324	196	2
729	1764	2
225	1521	2
9	1156	2
100	2704	2
225	3844	2
100	961	2
144	64	2
484	1600	2
441	3969	2
169	2025	2
100	289	2
196	64	2
121	0	2
9	1681	2
36	2401	2
196	64	2
121	625	2
25	900	2
100	2025	2
196	9	2
49	49	2
4	100	2
121	3844	2
196	10000	2
25	5184	2
81	324	2
625	0	2
729	289	2
225	484	2
121	441	2
169	676	2
64	289	2
64	0	2
484	529	2
1024	5476	2
441	5476	2
49	400	2
36	196	2
49	324	2
36	81	2
64	225	2
144	729	2
64	0	2
1	1024	2
49	1849	2
121	3249	2
0	3844	2
25	1024	2
16	400	2
144	2401	2
100	361	2
81	729	2
256	676	2
256	100	2
100	2116	2
169	5041	2
576	7056	2
676	5625	2
361	441	2
256	1444	2
144	1936	2
4	441	2
9	225	2
225	1764	2
400	1444	2
169	625	2
81	49	2
81	676	2
4	3249	2
16	1369	2
9	484	2
361	5329	2
576	6724	2
289	3136	2
361	1369	2
676	1764	2
324	441	2
16	784	2
81	121	2
441	3600	2
256	7225	2
121	1600	2
256	4	2
144	121	2
4	841	2
16	1296	2
121	9	2
49	100	2
1	121	2
64	729	2
256	529	2
121	100	2
25	361	2
121	2401	2
289	3600	2
144	2116	2
81	324	2
196	4	2
196	0	2
81	25	2
49	16	2
81	81	2
81	121	2
169	1	2
529	16	2
676	784	2
121	1681	2
0	256	2
9	4	2
64	0	2
49	0	2
121	81	2
529	729	2
576	289	2
64	1764	2
0	7921	2
64	1521	2
144	900	2
64	2809	2
289	6241	2
625	9801	2
256	5329	2
81	1849	2
196	2809	2
400	3249	2
196	144	2
64	625	2
144	256	2
196	121	2
49	100	2
81	484	2
400	4761	2
289	5776	2
25	729	2
36	49	2
100	49	2
4	144	2
16	900	2
25	4356	2
169	5776	2
121	8649	2
64	6400	2
225	144	2
144	1296	2
49	1296	2
225	900	2
576	2304	2
324	3025	2
144	2304	2
256	3600	2
324	2809	2
100	169	2
25	225	2
64	729	2
100	625	2
25	144	2
16	9	2
121	529	2
196	1296	2
196	1369	2
484	2500	2
784	4356	2
361	1936	2
49	196	2
121	1024	2
361	2500	2
169	0	2
36	2025	2
64	81	2
81	1521	2
25	0	2
49	6400	2
225	5929	2
100	169	2
9	16	2
4	576	2
169	324	2
289	2916	2
144	1764	2
256	3969	2
625	6241	2
441	1521	2
81	16	2
81	1	2
144	1681	2
49	2500	2
49	784	2
144	169	2
121	4	2
81	25	2
256	4	2
625	289	2
576	361	2
256	81	2
121	1225	2
64	324	2
0	9	2
1	196	2
121	25	2
484	1936	2
324	1849	2
289	361	2
576	576	2
484	841	2
81	225	2
9	1764	2
64	169	2
100	3364	2
36	484	2
100	324	2
324	0	2
196	289	2
64	25	2
169	1089	2
225	4225	2
25	1156	2
36	25	2
225	1	2
121	900	2
4	2704	2
49	1764	2
1	225	2
16	64	2
9	625	2
64	484	2
169	16	2
64	4	2
100	25	2
900	3249	2
1681	11236	2
676	5929	2
100	2116	2
25	3364	2
4	3844	2
9	1521	2
324	289	2
841	484	2
400	1936	2
121	4761	2
121	7921	2
121	5929	2
16	400	2
9	1089	2
144	1089	2
225	289	2
16	1225	2
1	3249	2
64	2209	2
49	441	2
9	256	2
196	324	2
484	196	2
100	196	2
16	16	2
144	529	2
324	1681	2
225	256	2
169	841	2
361	576	2
324	324	2
9	169	2
9	25	2
81	324	2
441	729	2
289	144	2
196	961	2
289	225	2
225	144	2
196	9	2
729	1444	2
1369	6084	2
625	6561	2
144	3721	2
169	3481	2
121	3600	2
0	529	2
1	81	2
196	3136	2
81	7569	2
4	2500	2
16	121	2
289	49	2
169	225	2
36	1024	2
121	16	2
225	2116	2
49	1764	2
1	361	2
25	256	2
121	625	2
144	441	2
196	289	2
289	225	2
256	1	2
49	144	2
16	64	2
9	676	2
4	9	2
25	1936	2
169	9025	2
324	10404	2
324	2304	2
324	9	2
484	784	2
361	1936	2
100	841	2
81	81	2
256	676	2
225	324	2
49	81	2
144	289	2
324	3600	2
121	2025	2
1	1	2
81	36	2
256	529	2
81	196	2
4	576	2
36	676	2
64	49	2
64	144	2
144	121	2
289	16	2
100	2401	2
0	3600	2
49	1369	2
324	529	2
289	441	2
169	400	2
196	1521	2
196	3136	2
36	729	2
16	49	2
324	0	2
841	900	2
484	1296	2
225	784	2
289	1521	2
100	1600	2
4	100	2
100	25	2
484	49	2
400	9	2
121	441	2
121	441	2
100	49	2
9	676	2
9	2209	2
256	625	2
576	400	2
196	1296	2
36	961	2
121	3481	2
144	5776	2
9	576	2
9	1156	2
169	256	2
144	36	2
49	676	2
225	900	2
576	9	2
289	64	2
49	169	2
25	289	2
4	400	2
0	1849	2
49	1600	2
361	121	2
225	2025	2
9	1444	2
64	3025	2
484	10816	2
441	10000	2
121	900	2
100	289	2
196	100	2
121	169	2
64	2601	2
225	2500	2
361	1	2
169	1369	2
121	2304	2
361	4761	2
169	4489	2
1	1296	2
16	529	2
169	1444	2
225	1296	2
289	169	2
289	144	2
64	400	2
9	25	2
1	121	2
144	16	2
121	36	2
0	16	2
25	121	2
400	25	2
784	225	2
625	144	2
729	676	2
841	2209	2
196	1225	2
16	16	2
1	1	2
144	49	2
961	0	2
1089	289	2
100	64	2
4	144	2
64	9	2
1225	36	2
4900	784	2
3136	2209	2
25	196	2
1936	81	2
676	169	2
36	625	2
529	16	2
1849	441	2
3249	1	2
1156	9	2
0	225	2
324	64	2
100	1369	2
400	256	2
1296	1	2
729	784	2
256	3025	2
324	1369	2
576	961	2
441	3136	2
1024	2704	2
3136	225	2
5625	4	2
3364	16	2
9	64	2
1369	1764	2
1764	1936	2
1024	169	2
625	16	2
64	9	2
3364	576	2
5776	1089	2
4489	289	2
225	900	2
1681	4624	2
3600	3600	2
6561	144	2
5776	100	2
1089	0	2
4	49	2
900	4	2
2209	64	2
4096	196	2
2704	25	2
289	289	2
529	81	2
1156	576	2
1024	36	2
4761	529	2
11664	36	2
6400	900	2
0	400	2
3600	144	2
3600	576	2
1681	361	2
961	36	2
4	1296	2
2809	4225	2
4900	1764	2
3364	441	2
4096	2601	2
4761	4624	2
1225	841	2
1	4	2
1089	16	2
8281	64	2
10201	1444	2
1600	900	2
1444	4	2
13225	25	2
25281	484	2
16900	100	2
2304	25	2
676	9	2
3025	16	2
1024	961	2
900	2500	2
5929	225	2
15876	81	2
13689	49	2
1936	289	2
676	36	2
2116	324	2
1156	1600	2
625	841	2
1600	36	2
5476	256	2
8281	961	2
4489	64	2
1156	100	2
49	169	2
49	784	2
841	144	2
6241	400	2
4356	2116	2
36	484	2
225	484	2
1936	144	2
7396	289	2
1849	100	2
25	49	2
441	0	2
729	196	2
900	16	2
1156	169	2
400	289	2
1	961	2
196	100	2
841	4	2
841	324	2
16	169	2
576	256	2
400	196	2
676	729	2
7396	784	2
6400	289	2
9	324	2
9	36	1
2304	64	1
196	529	1
676	2401	1
361	1369	1
169	4	1
961	4	1
9	324	1
1849	289	1
841	4	1
144	49	1
289	784	1
1089	256	1
4624	36	1
9801	900	1
12996	3600	1
13924	3249	1
10404	1444	1
1089	484	1
4761	0	1
13225	484	1
6889	49	1
400	784	1
1089	625	1
4900	81	1
8100	441	1
4900	1	1
576	49	1
0	36	1
900	16	1
3136	289	1
1024	225	1
676	169	1
3364	1369	1
3025	1024	1
121	25	1
784	196	1
2304	324	1
1521	841	1
36	4	1
625	4	1
1936	256	1
1369	49	1
529	81	1
100	64	1
784	625	1
2401	64	1
324	0	1
121	1156	1
36	2809	1
169	625	1
36	256	1
169	1849	1
0	2025	1
289	625	1
4	400	1
144	324	1
196	36	1
289	2025	1
4	2025	1
0	289	1
900	4	1
4096	225	1
3969	1600	1
484	1296	1
4	676	1
64	729	1
1681	529	1
4761	36	1
3844	121	1
100	169	1
10609	0	1
7225	64	1
196	256	1
9604	1156	1
15376	529	1
9025	576	1
3844	1225	1
1225	49	1
144	900	1
441	289	1
529	324	1
484	1764	1
3364	1849	1
4225	625	1
2116	900	1
9	1764	1
529	361	1
1225	169	1
2209	16	1
16	196	1
225	9	1
676	49	1
784	9	1
400	36	1
4096	1	1
4356	121	1
1600	784	1
441	625	1
49	64	1
1681	16	1
2601	81	1
1521	49	1
256	121	1
289	784	1
289	841	1
441	0	1
784	529	1
1849	16	1
5625	81	1
1849	16	1
2209	16	1
2500	1764	1
36	3025	1
225	1444	1
100	729	1
1681	289	1
2500	4	1
1156	144	1
49	81	1
144	49	1
1	1	1
1225	169	1
441	16	1
2209	16	1
7396	225	1
1600	1	1
400	1936	1
100	2500	1
7056	400	1
5929	196	1
1296	729	1
841	144	1
81	16	1
3844	169	1
4761	576	1
4489	9	1
5476	64	1
7396	144	1
9409	625	1
7225	400	1
4624	1521	1
1521	3844	1
49	1849	1
529	36	1
169	4	1
4761	49	1
8464	4	1
3600	144	1
36	49	1
841	4	1
1444	1	1
324	64	1
36	1225	1
0	900	1
289	64	1
676	576	1
1444	16	1
2500	100	1
1225	25	1
9	16	1
361	144	1
225	49	1
1024	1	1
3969	361	1
1764	841	1
100	81	1
484	81	1
1600	64	1
1444	16	1
1296	225	1
2500	625	1
7921	784	1
12996	625	1
9801	576	1
6724	1024	1
4356	729	1
1089	0	1
9	25	1
25	576	1
0	1225	1
2025	225	1
3600	256	1
289	1600	1
0	841	1
1024	100	1
576	225	1
256	196	1
484	484	1
25	16	1
289	441	1
36	121	1
1089	16	1
1600	49	1
1849	1296	1
1600	1936	1
1089	484	1
529	144	1
4	784	1
961	1089	1
2500	121	1
900	49	1
841	169	1
3969	49	1
3025	625	1
529	36	1
289	225	1
2704	196	1
3136	100	1
169	729	1
2116	1936	1
6241	1296	1
3969	576	1
900	441	1
625	64	1
676	196	1
1764	9	1
6084	1764	1
5041	1156	1
961	16	1
100	289	1
121	4	1
1600	81	1
1369	4	1
16	36	1
144	36	1
9	100	1
169	169	1
576	16	1
1521	1	1
289	1369	1
625	1764	1
784	16	1
0	324	1
256	484	1
36	1849	1
2601	4096	1
3136	3025	1
100	1369	1
6241	1764	1
3844	2116	1
16	841	1
2401	289	1
7225	841	1
4096	625	1
1225	0	1
1849	25	1
3249	900	1
3600	169	1
5329	225	1
7744	81	1
7569	81	1
2025	9	1
529	400	1
1089	1	1
256	729	1
1764	361	1
4900	225	1
1936	1156	1
576	1296	1
5476	196	1
3844	81	1
49	361	1
1936	0	1
1849	400	1
121	1	1
2025	676	1
400	100	1
25	49	1
900	169	1
841	900	1
441	49	1
1521	121	1
841	4	1
81	25	1
2601	400	1
11236	36	1
24649	484	1
22500	289	1
8100	16	1
576	289	1
2209	3249	1
8100	2304	1
6724	576	1
2916	1296	1
1764	1521	1
2601	81	1
4096	49	1
4225	9	1
1521	49	1
121	4	1
289	196	1
2916	784	1
4624	9	1
1225	1296	1
49	961	1
9	16	1
9	49	1
121	529	1
2704	144	1
2500	36	1
4	121	1
2500	484	1
6400	2116	1
2401	2025	1
225	484	1
900	324	1
4356	1296	1
6561	1225	1
5476	529	1
3969	961	1
529	841	1
1764	121	1
4096	961	1
441	121	1
361	2304	1
144	841	1
400	16	1
900	196	1
256	484	1
400	100	1
484	676	1
1	4225	1
64	3721	1
144	529	1
361	121	1
16	225	1
0	0	1
676	81	1
1089	144	1
36	361	1
0	49	1
625	256	1
3600	36	1
3721	121	1
576	16	1
144	9	1
1156	121	1
16	49	1
4356	144	1
6889	100	1
2116	36	1
81	100	1
256	256	1
3025	1444	1
8836	1225	1
10000	9	1
4489	1	1
1089	484	1
900	400	1
676	144	1
361	400	1
484	0	1
121	4	1
2500	256	1
1296	1	1
16	289	1
1849	81	1
3721	64	1
3364	900	1
361	484	1
1296	144	1
1156	361	1
9	49	1
16	441	1
256	196	1
225	1156	1
4096	5329	1
4489	3721	1
1600	400	1
1089	361	1
1444	1444	1
0	576	1
2500	64	1
6561	625	1
12100	1225	1
9604	289	1
2601	81	1
1	784	1
3969	529	1
6724	324	1
4225	1156	1
2401	196	1
1024	225	1
1296	1089	1
3969	484	1
3721	4	1
625	49	1
144	324	1
1369	2209	1
2304	1296	1
784	256	1
25	841	1
121	81	1
225	729	1
0	256	1
1521	576	1
2401	1369	1
64	400	1
4761	64	1
19044	16	1
10404	144	1
169	9	1
1849	25	1
7921	81	1
10000	225	1
1936	36	1
16	400	1
1	2704	1
49	2401	1
16	529	1
81	576	1
2116	1296	1
3600	289	1
1764	1	1
289	196	1
196	289	1
2704	36	1
5625	289	1
2116	196	1
289	576	1
1600	441	1
841	1225	1
1024	225	1
625	2116	1
256	625	1
1225	100	1
3136	676	1
1681	784	1
256	289	1
784	784	1
1089	625	1
1	144	1
196	361	1
36	625	1
144	2304	1
64	484	1
0	121	1
676	841	1
225	1024	1
4	169	1
100	49	1
16	64	1
441	81	1
529	400	1
400	36	1
3600	1296	1
1521	676	1
49	9	1
256	49	1
169	169	1
144	25	1
4	100	1
1024	121	1
784	256	1
0	9	1
36	49	1
784	169	1
3481	81	1
144	289	1
5329	100	1
11236	289	1
5929	100	1
729	225	1
64	225	1
100	576	1
100	49	1
225	144	1
289	784	1
1089	1764	1
784	289	1
81	256	1
400	1444	1
841	576	1
36	16	1
841	289	1
1681	2304	1
289	900	1
4	4	1
0	256	1
9	1089	1
225	196	1
1089	1	1
484	121	1
81	144	1
361	9	1
0	256	1
144	1444	1
196	529	1
841	64	1
2500	441	1
1156	289	1
36	121	1
81	9	1
2500	841	1
9025	961	1
7396	144	1
3721	324	1
1681	2116	1
64	1849	1
2601	169	1
1764	49	1
784	625	1
961	729	1
441	25	1
196	16	1
841	25	1
576	484	1
256	225	1
3364	1024	1
3249	2025	1
729	1	1
441	100	1
961	400	1
16	1024	1
2304	324	1
7744	625	1
8836	2401	1
2916	1156	1
9	64	1
1521	361	1
1225	144	1
16	576	1
36	1024	1
0	64	1
324	196	1
441	100	1
324	121	1
1089	1225	1
1764	1024	1
1024	9	1
9	121	1
676	289	1
5041	529	1
11664	25	1
17161	121	1
12321	729	1
4624	400	1
2500	400	1
2601	2209	1
1936	2209	1
841	196	1
225	0	1
256	64	1
4900	36	1
9216	169	1
4356	64	1
81	289	1
5929	144	1
5476	25	1
1225	49	1
729	289	1
10816	64	1
8836	961	1
64	100	1
8100	196	1
7225	289	1
3025	1369	1
2304	4624	1
289	3249	1
16	400	1
576	64	1
1024	225	1
16	0	1
144	324	1
625	169	1
1225	2209	1
961	1225	1
49	441	1
1600	1600	1
100	961	1
2809	1024	1
5776	3600	1
256	169	1
4761	256	1
5625	169	1
64	729	1
576	16	1
25	484	1
169	324	1
841	1225	1
289	2116	1
256	289	1
64	0	1
841	576	1
1521	1089	1
1681	225	1
3249	400	1
2500	1764	1
16	1024	1
1156	9	1
961	4	1
196	484	1
4	144	1
576	64	1
1936	0	1
2209	196	1
1849	25	1
841	36	1
144	1024	1
25	1089	1
324	25	1
841	0	1
144	289	1
9	256	1
961	1	1
3844	121	1
2809	625	1
100	64	1
4489	256	1
5776	9	1
1681	484	1
196	169	1
3721	16	1
4900	25	1
4	0	1
9025	1089	1
7744	1089	1
4	25	1
3721	484	1
2116	196	1
16	1444	1
0	4761	1
289	1521	1
1	25	1
1	36	1
169	841	1
484	64	1
1849	16	1
3481	225	1
2304	729	1
729	196	1
625	289	1
1156	1225	1
784	729	1
324	1	1
676	4	1
1444	144	1
1225	25	1
729	81	1
729	4	1
676	324	1
225	81	1
121	9	1
196	625	1
49	900	1
49	64	1
64	49	1
4	900	1
64	729	1
81	49	1
64	169	1
256	729	1
36	81	1
64	121	1
484	4	1
576	169	1
121	144	1
121	625	1
361	169	1
100	1521	1
169	144	1
400	9	1
81	676	1
25	1936	1
25	1369	1
36	2601	1
225	3136	1
169	441	1
256	1	1
1089	81	1
1521	4	1
961	676	1
841	289	1
1089	729	1
529	1296	1
64	0	1
36	169	1
100	1	1
0	169	1
100	2601	1
36	2116	1
4	64	1
36	4	1
25	36	1
36	49	1
225	529	1
225	144	1
529	289	1
1089	2704	1
961	3481	1
484	676	1
484	169	1
484	1024	1
100	729	1
4	4	1
81	9	1
100	256	1
1	64	1
16	36	1
64	225	1
169	676	1
9	0	1
9	49	1
324	1024	1
576	2500	1
361	625	1
676	676	1
1225	2809	1
625	1681	1
121	9	1
196	64	1
289	1024	1
16	169	1
0	121	1
64	81	1
64	625	1
1	4	1
4	121	1
256	196	1
256	576	1
81	1	1
196	9	1
441	289	1
144	100	1
1	400	1
16	441	1
49	1	1
4	4	1
36	1	1
289	784	1
225	1681	1
4	100	1
16	9	1
256	441	1
169	676	1
36	0	1
169	0	1
441	484	1
196	324	1
81	1	1
289	36	1
324	441	1
16	16	1
1	100	1
196	169	1
324	841	1
121	64	1
225	25	1
676	1024	1
441	961	1
100	4	1
196	36	1
441	1156	1
196	576	1
49	16	1
169	16	1
144	576	1
9	169	1
9	0	1
169	400	1
169	1225	1
9	121	1
25	4	1
256	361	1
256	441	1
36	256	1
25	625	1
169	64	1
169	324	1
81	16	1
169	9	1
169	289	1
25	144	1
36	36	1
324	1156	1
324	2209	1
81	324	1
169	36	1
484	961	0
289	1225	0
81	36	0
225	1	0
400	324	0
121	100	0
9	121	0
169	1	0
225	400	0
36	25	0
9	121	0
121	49	0
121	529	0
16	81	0
64	64	0
324	1296	0
256	1089	0
81	4	0
169	1	0
289	676	0
144	625	0
144	25	0
441	121	0
400	625	0
49	100	0
9	16	0
144	225	0
100	576	0
9	81	0
9	529	0
64	169	0
144	676	0
25	81	0
64	361	0
361	121	0
361	529	0
361	144	0
784	784	0
784	2304	0
225	625	0
121	4	0
289	484	0
169	1225	0
0	121	0
0	0	0
81	484	0
64	676	0
4	16	0
81	9	0
256	289	0
100	49	0
36	144	0
289	0	0
484	289	0
225	1	0
169	196	0
361	16	0
196	400	0
1	16	0
4	36	0
196	1369	0
49	1024	0
4	4	0
4	4	0
144	441	0
100	361	0
169	1	0
576	196	0
729	841	0
225	81	0
169	64	0
529	289	0
441	1089	0
25	0	0
0	256	0
81	196	0
100	676	0
25	64	0
121	400	0
400	2209	0
144	961	0
49	0	0
289	100	0
361	961	0
100	144	0
100	36	0
400	225	0
400	729	0
100	36	0
121	4	0
289	400	0
81	576	0
1	1	0
9	0	0
100	256	0
25	25	0
0	361	0
49	196	0
121	64	0
64	16	0
196	16	0
529	144	0
361	441	0
121	16	0
289	64	0
529	1444	0
225	1600	0
49	169	0
121	121	0
121	784	0
4	400	0
1	4	0
144	196	0
196	729	0
4	16	0
1	121	0
225	225	0
441	784	0
289	49	0
625	81	0
1024	1444	0
441	784	0
25	64	0
64	4	0
256	841	0
100	441	0
16	9	0
100	36	0
81	441	0
1	16	0
16	36	0
196	289	0
196	961	0
49	81	0
144	0	0
441	400	0
256	324	0
81	225	0
121	400	0
169	64	0
49	169	0
25	16	0
144	4	0
144	324	0
25	144	0
49	100	0
256	1444	0
225	1936	0
81	169	0
169	9	0
361	676	0
196	676	0
81	1	0
196	9	0
256	169	0
36	25	0
9	49	0
225	169	0
324	841	0
36	9	0
9	169	0
196	256	0
256	961	0
49	100	0
144	81	0
529	1369	0
289	900	0
36	4	0
225	100	0
676	2704	0
361	1681	0
100	25	0
196	49	0
144	289	0
1	0	0
1	196	0
81	81	0
144	324	0
36	256	0
36	961	0
169	0	0
121	100	0
25	196	0
64	196	0
225	225	0
144	361	0
196	169	0
576	1521	0
529	2809	0
121	784	0
121	196	0
361	1296	0
225	1444	0
49	49	0
144	1	0
256	529	0
64	400	0
1	9	0
81	1	0
196	144	0
25	1	0
4	256	0
196	49	0
289	729	0
100	49	0
196	9	0
529	484	0
324	841	0
49	49	0
121	144	0
441	1681	0
289	900	0
49	16	0
81	4	0
100	225	0
4	36	0
9	49	0
196	169	0
256	961	0
36	121	0
36	9	0
256	361	0
169	529	0
4	196	0
4	576	0
196	144	0
225	625	0
121	1	0
196	25	0
256	289	0
81	196	0
81	0	0
361	361	0
361	1444	0
81	324	0
100	49	0
289	1024	0
144	1444	0
36	144	0
144	36	0
361	576	0
121	324	0
9	4	0
100	9	0
225	400	0
100	100	0
100	9	0
361	121	0
289	625	0
64	64	0
100	1	0
361	484	0
256	625	0
81	0	0
121	0	0
196	484	0
49	256	0
36	36	0
256	16	0
361	625	0
100	289	0
81	9	0
324	529	0
289	1024	0
16	0	0
1	289	0
100	225	0
100	676	0
1	100	0
9	576	0
196	81	0
225	529	0
121	49	0
225	324	0
256	1681	0
121	729	0
169	36	0
484	529	0
400	1296	0
100	121	0
100	9	0
169	256	0
36	484	0
4	16	0
144	25	0
361	576	0
144	225	0
25	144	0
100	144	0
121	16	0
36	0	0
64	36	0
289	144	0
324	676	0
169	144	0
289	121	0
441	1156	0
225	1089	0
81	100	0
169	100	0
169	676	0
16	289	0
16	0	0
144	81	0
144	400	0
4	1	0
9	256	0
196	81	0
324	676	0
100	4	0
81	81	0
196	225	0
144	625	0
121	121	0
400	361	0
576	1521	0
196	676	0
81	16	0
196	225	0
144	841	0
16	144	0
25	4	0
144	169	0
64	441	0
16	16	0
144	4	0
400	529	0
144	441	0
36	0	0
169	9	0
289	529	0
121	169	0
121	100	0
324	49	0
289	81	0
100	25	0
144	4	0
256	144	0
100	484	0
25	49	0
144	36	0
361	841	0
121	900	0
25	49	0
100	49	0
121	441	0
16	100	0
9	16	0
121	100	0
169	625	0
36	64	0
64	16	0
225	324	0
196	900	0
81	100	0
256	121	0
484	1156	0
289	784	0
100	1	0
196	25	0
225	784	0
81	289	0
81	1	0
289	49	0
196	324	0
25	4	0
49	36	0
196	121	0
100	484	0
9	25	0
64	0	0
196	289	0
81	324	0
49	49	0
169	169	0
256	36	0
169	121	0
169	0	0
256	49	0
100	324	0
25	144	0
121	169	0
225	900	0
121	1225	0
121	400	0
225	100	0
121	169	0
64	256	0
169	169	0
169	81	0
64	100	0
144	169	0
256	100	0
169	49	0
64	144	0
225	225	0
324	169	0
49	64	0
0	49	0
64	64	0
196	169	0
64	361	0
64	441	0
361	225	0
400	81	0
100	64	0
81	100	0
225	121	0
169	81	0
36	64	0
100	49	0
289	49	0
256	121	0
144	256	0
361	289	0
529	289	0
256	361	0
100	361	0
196	64	0
169	1	0
64	64	0
64	196	0
121	81	0
25	4	0
4	0	0
81	16	0
256	121	0
121	361	0
49	484	0
144	256	0
256	121	0
100	144	0
64	196	0
121	100	0
121	64	0
64	144	0
100	225	0
225	144	0
144	100	0
49	169	0
100	144	0
169	16	0
64	25	0
49	144	0
225	196	0
324	169	0
121	324	0
121	361	0
324	169	0
289	81	0
81	121	0
36	100	0
169	81	0
169	169	0
100	289	0
225	169	0
361	64	0
121	196	0
36	289	0
121	25	0
256	0	0
121	81	0
100	361	0
256	196	0
144	64	0
25	121	0
64	225	0
225	225	0
100	144	0
16	169	0
144	196	0
324	144	0
81	144	0
9	144	0
100	144	0
256	121	0
144	169	0
121	169	0
289	81	0
289	49	0
121	64	0
196	100	0
441	49	0
256	1	0
36	1	0
36	25	0
121	25	0
49	81	0
36	256	0
196	400	0
256	361	0
64	484	0
49	441	0
196	256	0
256	121	0
121	100	0
121	81	0
324	49	0
256	100	0
81	225	0
121	121	0
196	25	0
121	169	0
16	256	0
9	1	0
144	16	0
324	400	0
225	676	0
196	144	0
324	484	0
289	1681	0
49	529	0
49	0	0
196	144	0
169	676	0
16	49	0
64	4	0
289	361	0
121	729	0
25	36	0
144	4	0
400	441	0
144	169	0
9	256	0
49	225	0
121	64	0
25	9	0
16	144	0
196	4	0
225	400	0
81	49	0
196	49	0
484	1444	0
256	1521	0
49	36	0
169	9	0
400	784	0
169	676	0
64	1	0
225	64	0
225	625	0
4	36	0
0	121	0
256	225	0
400	1156	0
16	1	0
0	361	0
169	196	0
256	900	0
100	16	0
289	144	0
729	2025	0
361	1156	0
81	4	0
256	64	0
441	1369	0
144	441	0
49	16	0
256	144	0
225	900	0
1	64	0
0	25	0
36	400	0
36	400	0
1	625	0
16	1521	0
196	1	0
121	169	0
16	64	0
64	16	0
169	324	0
121	196	0
196	81	0
676	1444	0
576	2704	0
121	400	0
121	9	0
484	841	0
289	1089	0
36	25	0
81	1	0
256	529	0
49	225	0
1	64	0
121	16	0
256	784	0
4	64	0
0	100	0
196	196	0
289	1024	0
64	25	0
169	1	0
676	1024	0
361	1225	0
49	1	0
169	36	0
625	1681	0
289	841	0
49	49	0
121	1	0
196	324	0
25	16	0
25	81	0
289	324	0
324	1296	0
36	121	0
64	16	0
324	361	0
144	324	0
25	784	0
16	1681	0
100	1	0
196	324	0
100	4	0
225	0	0
324	441	0
144	196	0
121	36	0
441	1156	0
400	2500	0
100	361	0
169	25	0
441	1024	0
225	1296	0
36	81	0
121	16	0
225	484	0
36	121	0
4	121	0
144	16	0
324	676	0
100	100	0
100	36	0
400	144	0
324	676	0
49	25	0
121	16	0
441	1296	0
169	1089	0
0	4	0
25	25	0
144	256	0
49	100	0
36	36	0
225	144	0
256	1296	0
36	324	0
25	0	0
289	441	0
256	841	0
0	196	0
36	1225	0
36	25	0
100	529	0
9	64	0
64	289	0
361	225	0
324	529	0
169	100	0
529	961	0
729	2704	0
196	625	0
100	16	0
324	961	0
289	1849	0
49	100	0
121	4	0
484	576	0
225	625	0
25	1	0
121	0	0
289	400	0
49	64	0
1	256	0
144	0	0
324	400	0
121	25	0
121	81	0
361	144	0
256	729	0
25	49	0
49	36	0
256	1089	0
144	961	0
25	0	0
121	1	0
256	361	0
81	169	0
64	9	0
289	225	0
289	900	0
1	0	0
9	484	0
81	169	0
144	1156	0
0	9	0
4	576	0
100	169	0
256	1156	0
256	256	0
676	841	0
961	3025	0
324	1225	0
81	0	0
289	121	0
400	961	0
100	64	0
81	81	0
361	289	0
289	961	0
36	25	0
49	9	0
256	441	0
100	441	0
1	36	0
49	25	0
169	196	0
16	4	0
0	576	0
81	169	0
225	144	0
81	16	0
64	16	0
361	400	0
400	1024	0
100	64	0
144	16	0
361	1156	0
144	1225	0
25	16	0
169	25	0
289	484	0
25	36	0
1	100	0
225	196	0
361	1296	0
9	36	0
1	225	0
196	324	0
400	1296	0
169	81	0
400	169	0
784	2304	0
400	1521	0
121	1	0
441	49	0
625	1521	0
100	484	0
1	36	0
100	81	0
144	784	0
4	49	0
25	64	0
256	225	0
121	625	0
0	0	0
4	9	0
100	256	0
49	36	0
9	729	0
81	625	0
196	9	0
64	25	0
49	144	0
256	4	0
256	625	0
64	225	0
121	121	0
441	1600	0
324	1936	0
81	81	0
144	16	0
324	961	0
121	841	0
25	0	0
169	9	0
324	361	0
36	1	0
4	225	0
256	196	0
400	1369	0
36	49	0
16	169	0
289	400	0
400	1369	0
144	81	0
324	121	0
729	1849	0
289	1024	0
25	16	0
121	0	0
169	400	0
16	81	0
16	25	0
225	289	0
289	1369	0
36	225	0
49	0	0
324	625	0
196	676	0
0	324	0
0	1296	0
64	1	0
49	144	0
16	81	0
144	49	0
256	361	0
121	225	0
196	36	0
576	1225	0
484	2500	0
64	289	0
49	1	0
256	900	0
169	1296	0
36	25	0
144	0	0
361	576	0
144	256	0
25	49	0
196	9	0
289	484	0
16	4	0
1	256	0
256	100	0
400	961	0
100	81	0
144	4	0
484	900	0
225	1024	0
25	4	0
144	49	0
576	1764	0
225	1024	0
25	4	0
100	9	0
196	484	0
16	36	0
4	81	0
256	225	0
324	1225	0
25	121	0
16	9	0
289	361	0
196	324	0
0	576	0
0	1296	0
100	4	0
144	256	0
121	16	0
484	676	0
576	2601	0
121	529	0
49	16	0
289	289	0
289	1089	0
36	49	0
49	36	0
324	400	0
196	625	0
16	1	0
100	4	0
256	441	0
9	100	0
25	121	0
36	16	0
289	576	0
144	36	0
144	100	0
529	100	0
529	625	0
121	25	0
144	16	0
484	1225	0
225	1089	0
4	1	0
4	9	0
81	400	0
64	196	0
100	9	0
529	225	0
676	1521	0
256	400	0
100	4	0
121	256	0
16	784	0
16	100	0
0	900	0
81	25	0
81	625	0
36	9	0
256	121	0
625	441	0
289	576	0
361	4	0
289	729	0
961	3025	0
3481	961	0
196	81	0
2304	1024	0
5625	1764	0
1369	81	0
1156	81	0
3969	169	0
2025	484	0
9	16	0
4900	196	0
7744	900	0
1600	25	0
25	784	0
64	256	0
121	100	0
289	1	0
625	121	0
8649	529	0
21025	1156	0
7744	49	0
0	441	0
2025	225	0
3844	529	0
1936	1	0
9	16	0
169	900	0
0	676	0
1	36	0
400	484	0
841	2116	0
16	400	0
4	100	0
4225	361	0
7396	1849	0
100	16	0
900	324	0
121	289	0
1225	1156	0
2116	289	0
9604	1225	0
14641	4225	0
2601	1089	0
289	49	0
361	169	0
256	1600	0
324	289	0
121	121	0
1521	4	0
400	169	0
729	81	0
2916	289	0
3136	9	0
3969	0	0
9025	729	0
11449	529	0
3136	64	0
361	64	0
2704	484	0
3025	169	0
225	361	0
6561	400	0
14641	400	0
18225	2116	0
7225	1600	0
16	4	0
576	100	0
289	484	0
2916	900	0
2500	100	0
3600	169	0
7921	841	0
6241	144	0
784	81	0
16	81	0
256	841	0
6241	25	0
11664	121	0
3969	576	0
289	1600	0
36	49	0
625	16	0
4900	1849	0
3600	2116	0
625	169	0
25	169	0
576	900	0
2601	144	0
2116	36	0
1024	121	0
784	625	0
0	25	0
4096	16	0
12996	529	0
6400	1024	0
169	36	0
0	1	0
196	256	0
25	49	0
289	729	0
16	729	0
169	1	0
9	9	0
576	169	0
225	9	0
64	100	0
81	4	0
1156	121	0
9025	2304	0
10816	2601	0
4761	169	0
1681	16	0
1681	529	0
1764	484	0
576	0	0
225	1	0
100	225	0
576	0	0
841	196	0
676	225	0
3969	1521	0
2809	625	0
2704	529	0
7225	2500	0
5625	2025	0
324	49	0
9	81	0
25	1369	0
324	400	0
3025	324	0
1681	169	0
324	100	0
121	16	0
144	1	0
1600	625	0
196	1521	0
1024	169	0
100	1	1
2500	676	1
2500	441	1
9	676	1
100	1521	1
64	16	1
36	64	1
1764	100	1
1521	36	1
225	289	1
36	225	1
0	81	1
256	1296	1
121	2304	1
400	400	1
225	36	1
2809	900	1
6724	1024	1
1444	1	1
289	16	1
169	256	1
841	49	1
4356	289	1
961	49	1
676	169	1
289	9	1
361	25	1
49	484	1
225	1681	1
144	225	1
1296	16	1
16	900	1
1936	1225	1
1764	25	1
2500	9	1
5625	900	1
4225	784	1
576	1	1
361	49	1
900	729	1
9	121	1
1	81	1
2916	169	1
3721	784	1
196	169	1
6241	1225	1
2916	36	1
49	961	1
324	0	1
400	81	1
484	441	1
1521	729	1
1936	256	1
9216	1681	1
18496	3844	1
11881	1156	1
2401	0	1
0	100	1
961	529	1
3136	1	1
3364	100	1
400	289	1
900	1089	1
3025	400	1
4225	400	1
4624	1024	1
2025	225	1
1225	121	1
4096	0	1
5041	256	1
2116	1	1
784	361	1
729	9	1
9	576	1
4356	25	1
3600	1	1
16	729	1
225	289	1
196	400	1
256	144	1
49	256	1
676	64	1
2809	196	1
1156	1	1
256	625	1
841	169	1
144	49	1
0	225	1
1225	1089	1
6241	0	1
3721	196	1
36	625	1
1225	1521	1
784	144	1
2809	400	1
4761	2500	1
676	1296	1
25	9	1
1600	256	1
3025	1521	1
625	196	1
196	49	1
1369	289	1
625	900	1
441	1	1
900	64	1
81	256	1
529	484	1
121	1	1
900	9	1
2401	324	1
441	4	1
225	484	1
25	256	1
729	1	1
484	16	1
3136	4	1
729	400	1
289	676	1
784	49	1
36	196	1
900	2025	1
1024	1681	1
81	100	1
324	81	1
961	676	1
36	196	1
4	16	1
1296	144	1
3025	676	1
1225	1	1
289	169	1
289	361	1
64	1024	1
625	64	1
1156	529	1
9	225	1
256	841	1
81	81	1
1296	441	1
8464	2116	1
7744	784	1
2209	4	1
1681	576	1
2704	2116	1
1444	441	1
676	1	1
1089	400	1
100	841	1
784	49	1
1681	1	1
961	484	1
576	169	1
1089	529	1
729	841	1
49	16	1
0	9	1
100	324	1
841	36	1
576	144	1
0	9	1
81	1	1
3249	841	1
5929	1681	1
1296	576	1
400	324	1
1089	900	1
400	625	1
36	25	1
169	64	1
144	400	1
121	1	1
16	144	1
484	121	1
400	784	1
256	16	1
2304	81	1
5929	196	1
3364	676	1
841	169	1
2209	529	1
6084	2401	1
1936	1521	1
529	81	1
2304	81	1
784	484	1
169	49	1
16	81	1
289	100	1
676	576	1
144	49	1
4900	0	1
6400	256	1
1296	289	1
64	4	1
1225	36	1
1024	100	1
729	0	1
2809	576	1
4356	169	1
2209	121	1
441	64	1
1	16	1
4	1024	1
529	2025	1
1936	361	1
2809	25	1
2809	729	1
1225	1156	1
4	81	1
0	9	1
1936	400	1
2809	144	1
361	121	1
169	4	1
2304	484	1
3969	9	1
1089	121	1
100	169	1
4	841	1
1156	81	1
36	64	1
6400	1225	1
5929	1024	1
196	25	1
361	289	1
1	2401	1
16	1156	1
169	0	1
2209	9	1
2116	196	1
81	0	1
169	81	1
36	81	1
1369	529	1
2116	36	1
1024	9	1
9	49	1
81	1	1
4	576	1
324	441	1
625	196	1
81	841	1
2809	256	1
5184	121	1
2209	289	1
0	225	1
1089	100	1
1600	289	1
100	484	1
576	196	1
1	81	1
1600	225	1
576	324	1
25	225	1
729	144	1
2209	256	1
1444	361	1
529	400	1
169	576	1
9	676	1
0	169	1
324	4	1
121	36	1
100	4	1
4	64	1
576	100	1
484	121	1
1024	81	1
1764	25	1
1444	121	1
1600	576	1
1296	625	1
625	625	1
400	576	1
324	196	1
361	4	1
676	4	1
1024	225	1
676	256	1
64	0	1
16	9	1
9	196	1
0	400	1
25	16	1
289	1	1
1	289	1
1156	225	1
784	1	1
81	36	1
9	324	1
1849	100	1
1849	64	1
9	676	1
1764	900	1
6400	100	1
6561	16	1
2116	289	1
0	196	1
36	1	1
961	144	1
1681	841	1
36	324	1
2401	0	1
676	4	1
361	100	1
1369	36	1
169	4	1
1156	100	1
3844	121	1
2704	9	1
49	9	1
1681	900	1
3721	1089	1
6561	289	1
8281	225	1
1089	400	1
2704	121	1
4225	1	1
361	16	1
49	9	1
25	25	1
576	1	1
4900	676	1
7744	1024	1
2809	9	1
64	121	1
16	100	1
36	361	1
121	64	1
121	361	1
196	1681	1
324	900	1
9	36	1
1	225	1
841	961	1
1681	324	1
1849	49	1
1764	529	1
144	400	1
1936	169	1
1764	324	1
1089	49	1
6241	169	1
3600	4	1
1024	0	1
169	196	1
196	16	1
1024	144	1
576	9	1
1	225	1
64	256	1
0	144	1
9	625	1
144	625	1
121	25	1
121	36	1
289	625	1
324	529	1
81	36	1
121	49	1
256	361	1
4225	196	1
2500	36	1
225	441	1
3481	961	1
4489	169	1
2209	0	1
49	196	1
529	361	1
64	36	1
1681	225	1
4096	1600	1
2209	1225	1
841	64	1
841	9	1
361	225	1
324	25	1
1681	49	1
400	64	1
9	441	1
121	36	1
4	9	1
529	144	1
784	400	1
484	81	1
1296	144	1
2601	529	1
1369	121	1
576	64	1
1024	4	1
625	169	1
36	9	1
64	225	1
225	100	1
196	25	1
961	121	1
2401	324	1
225	961	1
1024	729	1
4356	144	1
7744	144	1
5776	400	1
2304	196	1
1521	25	1
1444	81	1
225	289	1
576	324	1
2025	225	1
1156	225	1
16	441	1
1521	484	1
2025	625	1
361	841	1
4	576	1
16	121	1
324	1	1
2916	4	1
5041	36	1
529	16	1
900	4	1
2304	4	1
3364	4	1
1849	36	1
289	144	1
64	196	1
121	25	1
1024	64	1
2025	676	1
1369	784	1
784	100	1
784	0	1
484	81	1
0	81	1
25	16	1
169	1	1
4	196	1
676	225	1
16	144	1
2025	784	1
3136	1521	1
676	484	1
64	121	1
256	441	1
4	400	1
144	9	1
144	9	1
1521	196	1
729	16	1
9	169	1
4	9	1
144	361	1
2025	81	1
900	25	1
1225	169	1
3481	625	1
1024	81	1
961	100	1
1296	1296	1
49	784	1
4	9	1
676	0	1
2809	784	1
729	441	1
25	4	1
144	36	1
256	576	1
784	289	1
3481	49	1
2704	529	1
2116	900	1
2916	196	1
2704	144	1
900	900	1
289	400	1
9	361	1
676	729	1
2025	1	1
1296	49	1
625	81	1
1024	16	1
2704	289	1
2704	256	1
1849	121	1
3025	1089	1
3721	1764	1
2500	225	1
2401	25	1
1444	625	1
256	289	1
2025	144	1
441	25	1
100	361	1
784	100	1
1681	169	1
2304	9	1
676	484	1
169	324	1
121	64	1
961	625	1
1296	841	1
25	9	1
64	36	1
576	1600	1
1	1369	1
36	25	1
529	36	1
1849	900	1
576	361	1
81	16	1
64	64	1
36	784	1
49	196	1
324	25	1
900	900	1
64	1156	1
1156	169	1
2116	1024	1
0	64	1
1369	625	1
441	81	1
144	484	1
400	25	1
49	169	1
1024	36	1
100	900	1
3136	2601	1
1600	676	1
676	9	1
2401	529	1
1369	961	1
4	4	1
1	49	1
484	289	1
324	441	1
9	1	1
16	0	1
100	324	1
9	100	1
49	169	1
16	4	1
36	324	1
784	100	1
441	4	1
484	529	1
529	1024	1
529	25	1
961	1	1
1	484	1
361	484	1
484	0	1
1600	81	1
3249	1369	1
1296	1024	1
576	121	1
2401	361	1
2704	784	1
36	4	1
576	324	1
0	324	1
121	1156	1
169	16	1
144	576	1
289	36	1
289	441	1
9	25	1
289	324	1
2500	2601	1
676	1600	1
729	49	1
529	196	1
100	784	1
121	9	1
4	196	1
324	144	1
169	784	1
196	9	1
1	25	1
1849	484	1
2601	676	1
1600	9	1
1849	1	1
1936	225	1
196	4	1
441	361	1
576	64	1
1	169	1
484	36	1
1089	16	1
1764	256	1
1444	676	1
121	36	1
16	64	1
0	1225	1
100	961	1
81	16	1
1089	81	1
3844	784	1
1369	121	1
36	81	1
441	196	1
1296	1156	1
49	25	1
81	144	1
169	400	1
121	1296	1
289	144	1
289	196	1
1	1681	1
25	676	1
100	64	1
961	36	1
5476	1296	1
2401	256	1
25	144	1
676	1	1
36	400	1
256	4	1
400	144	1
256	36	1
81	289	1
121	0	1
900	0	1
1225	625	1
144	441	1
289	100	1
169	121	1
225	324	1
225	324	1
4	0	1
225	121	1
144	729	1
64	121	1
0	16	1
625	900	1
324	900	1
25	1	1
0	1	1
900	1024	1
1764	625	1
729	36	1
324	1	1
324	324	1
225	9	1
1444	49	1
4	529	1
1521	1936	1
25	81	1
676	441	1
9	81	1
529	900	1
625	100	1
961	196	1
2809	2116	1
3481	1225	1
1024	0	1
169	4	1
441	484	1
5776	225	1
3481	9	1
324	400	1
2704	784	1
289	0	1
361	81	1
1	484	1
144	841	1
144	169	1
121	784	1
1225	16	1
3481	289	1
2209	16	1
2209	4	1
1849	256	1
196	121	1
169	16	1
2500	729	1
1296	1296	1
361	100	1
1296	1	1
16	1024	1
400	1681	1
121	225	1
1	100	1
16	841	1
25	225	1
121	144	1
1	49	1
49	100	1
9	4	1
9	64	1
576	169	1
1764	1024	1
1681	225	1
1849	64	1
2809	900	1
2500	729	1
441	16	1
144	0	1
961	1369	1
576	961	1
9	0	1
4	121	1
289	1156	1
729	441	1
121	16	1
3969	529	1
1681	961	1
484	144	1
1024	1089	1
4	9	1
289	289	1
0	256	1
4	625	1
100	64	1
9	324	1
49	16	1
576	324	1
841	1156	1
9	169	1
64	4	1
900	529	1
2401	1444	1
289	121	1
9	0	1
169	625	1
576	1296	1
4	289	1
144	144	1
169	625	1
361	144	1
100	256	1
784	25	1
2304	289	1
625	1	1
64	256	1
484	9	1
441	484	1
1	36	1
25	64	1
784	1764	1
81	1444	1
196	4	1
225	1	1
3844	961	1
3136	841	1
196	16	1
64	169	1
289	1024	1
49	144	1
64	36	1
900	256	1
841	729	1
196	121	1
1521	784	1
36	144	1
64	841	1
256	81	1
400	441	1
1	121	1
225	400	1
576	36	1
2304	729	1
3969	2704	1
1936	961	1
361	9	1
64	100	1
49	289	1
484	1	1
100	1	1
361	529	1
1089	576	1
625	1	1
289	0	1
81	576	1
0	361	1
196	36	1
1296	1	1
2025	289	1
961	64	1
16	4	1
400	441	1
324	1444	1
256	256	1
9	64	1
121	1444	1
36	1369	1
529	4	1
169	4	1
3025	196	1
1089	169	1
81	4	1
49	441	1
1444	1225	1
441	1	1
1	841	1
9	64	1
289	100	1
3025	289	1
2401	576	1
144	441	1
3481	1296	1
3481	100	1
5329	529	1
8836	3136	1
4489	1521	1
576	9	1
16	196	1
625	1089	1
2601	121	1
1089	256	1
36	4	1
841	324	1
1600	81	1
3969	49	1
4489	900	1
676	784	1
256	0	1
144	1	1
400	324	1
676	121	1
64	225	1
100	144	1
4	25	1
1296	4	1
1600	4	1
16	1225	1
729	1936	1
196	64	1
196	4	1
1156	576	1
1089	729	1
144	25	1
324	49	1
400	441	1
256	36	1
676	81	1
196	169	1
2304	1089	1
1521	64	1
729	81	1
1156	361	1
196	1089	1
441	49	1
100	169	1
576	2209	1
196	1296	1
64	9	1
121	25	1
961	1600	1
144	529	1
121	121	1
25	0	1
361	361	1
529	4	1
196	100	1
361	196	1
121	676	1
144	0	1
4	49	1
841	361	1
784	484	1
169	81	1
841	225	1
2209	100	1
900	144	1
16	36	1
169	9	1
1156	576	1
2025	196	1
576	81	1
25	1156	1
4	1296	1
576	16	1
4	0	1
1369	729	1
1764	529	1
1225	1	1
2209	16	1
1764	400	1
16	0	1
196	289	1
64	81	1
625	1225	1
100	361	1
36	49	1
625	1156	1
441	1521	1
4	1	1
256	25	1
1764	1600	1
841	1764	1
36	64	1
64	100	1
121	1296	1
16	1024	1
36	256	1
441	900	1
361	676	1
1	1369	1
1	6889	1
81	2704	1
25	441	1
121	1296	1
64	324	1
196	1936	1
529	5329	1
256	1849	1
121	121	1
9	2304	1
0	961	1
225	900	1
1225	8281	1
1024	11025	1
225	4761	1
196	2704	1
529	4096	1
361	2025	1
64	4	1
256	4	1
625	1296	1
225	324	1
4	1849	1
81	2304	1
256	0	1
49	1089	1
16	1296	1
256	25	1
289	2401	1
49	5184	1
144	2025	1
576	196	1
196	1936	1
0	1369	1
36	2116	1
256	1936	1
49	100	1
9	81	1
121	121	1
81	324	1
1	36	1
100	81	1
961	256	1
729	256	1
9	324	1
49	900	1
16	484	1
16	3025	1
49	625	1
1	289	1
256	1936	1
256	361	1
121	256	1
441	1369	1
676	11236	1
289	7056	1
289	441	1
784	4	1
676	4	1
196	64	1
121	25	1
196	100	1
25	196	1
36	81	1
9	169	1
484	784	1
289	1764	1
16	49	1
81	3969	1
144	7569	1
4	8281	1
25	5476	1
361	324	1
484	1024	1
225	729	1
256	4	1
576	36	1
225	289	1
1	144	1
49	2500	1
256	7744	1
49	4624	1
9	1369	1
144	2025	1
36	3721	1
169	1444	1
121	256	1
196	2704	1
676	3136	1
196	64	1
169	1849	1
625	9	1
400	1369	1
121	1936	1
324	3481	1
625	5329	1
144	1089	1
9	529	1
196	169	1
576	361	1
225	81	1
100	1600	1
361	64	1
324	441	1
81	64	1
100	0	1
196	400	1
16	256	1
16	841	1
16	2601	1
196	256	1
49	1	1
0	2500	1
49	8281	1
196	2916	1
64	169	1
144	9	1
625	1225	1
441	4900	1
49	7569	1
144	9025	1
441	10609	1
144	4356	1
16	25	1
225	676	1
484	9	1
121	144	1
16	1	1
64	100	1
16	1156	1
49	961	1
25	256	1
81	361	1
121	36	1
0	2601	1
4	3969	1
576	441	1
900	6561	1
400	5041	1
441	3721	1
529	4356	1
256	4225	1
169	2500	1
361	784	1
144	25	1
4	1764	1
1	1444	1
484	1	1
529	25	1
64	1681	1
100	1156	2
625	361	2
441	841	2
49	484	2
36	784	2
144	1444	2
64	3969	2
4	25	2
16	2025	2
16	1296	2
9	361	2
0	1024	2
256	400	2
400	784	2
256	2916	2
400	4225	2
576	7225	2
225	4624	2
49	256	2
256	1	2
484	400	2
121	324	2
16	144	2
196	576	2
256	900	2
0	49	2
25	576	2
100	100	2
289	576	2
169	361	2
441	9	2
961	225	2
441	676	2
81	49	2
256	0	2
400	2304	2
36	1600	2
1	9	2
169	0	2
196	676	2
36	484	2
100	361	2
400	2704	2
169	4096	2
1	729	2
4	64	2
289	900	2
289	961	2
81	529	2
100	5041	2
100	3364	2
0	2809	2
1	4900	2
225	729	2
576	1936	2
289	4356	2
121	3025	2
225	2025	2
100	25	2
0	1521	2
9	1024	2
144	324	2
49	2116	2
4	3481	2
196	144	2
576	3136	2
196	6084	2
16	2809	2
64	1296	2
81	441	2
4	289	2
144	484	2
729	961	2
441	3249	2
64	676	2
225	1444	2
784	10816	2
400	12996	2
81	2500	2
196	9	2
361	49	2
81	0	2
36	529	2
256	1	2
256	256	2
9	676	2
4	1764	2
169	1	2
121	576	2
0	0	2
25	289	2
441	64	2
324	64	2
9	676	2
9	484	2
25	289	2
0	1296	2
36	1764	2
625	6241	2
784	9216	2
121	3600	2
16	729	2
196	900	2
196	169	2
64	1849	2
256	3721	2
625	441	2
144	9	2
0	196	2
64	1	2
361	676	2
121	729	2
81	4	2
361	4	2
484	400	2
169	16	2
144	361	2
324	4	2
225	529	2
81	169	2
225	1024	2
400	5776	2
100	3969	2
1	144	2
16	1	2
64	324	2
1	100	2
16	1	2
289	81	2
324	121	2
25	16	2
16	81	2
361	2601	2
361	1849	2
25	100	2
16	441	2
196	169	2
169	361	2
49	36	2
256	0	2
484	1156	2
121	576	2
4	9	2
225	121	2
484	729	2
121	9	2
100	196	2
361	400	2
256	841	2
36	256	2
100	121	2
256	16	2
36	441	2
1	3025	2
81	2500	2
400	100	2
169	169	2
16	225	2
81	676	2
121	2025	2
36	2209	2
100	2704	2
576	4761	2
400	1681	2
36	49	2
81	4	2
324	1225	2
121	784	2
25	256	2
196	441	2
289	64	2
49	289	2
16	841	2
196	441	2
225	1	2
9	64	2
16	324	2
289	169	2
225	3025	2
25	4900	2
225	6241	2
900	7056	2
484	1764	2
100	144	2
225	16	2
361	3721	2
81	2916	2
9	9	2
169	4	2
144	100	2
0	169	2
1	676	2
169	361	2
100	2916	2
25	961	2
289	121	2
1024	900	2
400	1024	2
9	36	2
25	1296	2
100	1296	2
0	3025	2
9	6889	2
81	2209	2
256	289	2
36	1936	2
16	2116	2
289	2304	2
400	1600	2
196	441	2
324	484	2
676	1764	2
289	1024	2
49	1	2
121	36	2
225	576	2
9	1024	2
9	4	2
121	441	2
441	169	2
289	0	2
400	1521	2
841	6084	2
484	1849	2
64	1521	2
121	3136	2
441	16	2
169	400	2
4	25	2
49	1	2
144	49	2
9	100	2
1	144	2
100	484	2
100	144	2
4	196	2
16	64	2
225	1681	2
256	5329	2
144	1936	2
361	324	2
576	729	2
196	441	2
16	1	2
64	225	2
100	2704	2
4	2401	2
49	529	2
529	1600	2
441	2916	2
81	900	2
196	361	2
529	2209	2
196	1369	2
4	1024	2
4	5476	2
36	2704	2
0	676	2
49	2116	2
0	3721	2
121	361	2
81	36	2
100	225	2
625	64	2
729	25	2
256	144	2
361	64	2
1024	841	2
841	2209	2
256	441	2
225	529	2
196	3364	2
16	3600	2
9	784	2
289	1764	2
400	6241	2
81	2500	2
25	49	2
121	784	2
25	3364	2
36	841	2
36	49	2
16	64	2
81	576	2
64	256	2
289	3136	2
729	1444	2
529	16	2
256	121	2
441	484	2
529	1681	2
144	841	2
25	441	2
81	1936	2
100	729	2
36	256	2
100	9	2
256	1600	2
64	2601	2
4	484	2
0	1	2
144	144	2
144	841	2
121	1681	2
289	4900	2
225	6724	2
25	784	2
49	1024	2
441	676	2
529	9	2
225	16	2
225	900	2
400	576	2
100	0	2
36	16	2
169	324	2
225	3481	2
64	5329	2
49	1600	2
225	4	2
225	81	2
25	81	2
16	676	2
225	1089	2
256	169	2
9	16	2
1	49	2
169	2116	2
196	2304	2
25	121	2
144	1089	2
441	81	2
225	625	2
64	441	2
196	2500	2
256	5041	2
16	2116	2
25	576	2
361	1369	2
400	1600	2
64	100	2
36	64	2
196	169	2
121	576	2
25	1	2
169	441	2
324	729	2
49	1849	2
0	3364	2
36	1600	2
121	16	2
36	16	2
64	16	2
324	484	2
361	4489	2
289	5476	2
441	5329	2
625	6889	2
289	3025	2
81	4	2
225	441	2
361	9	2
225	144	2
100	16	2
81	36	2
49	1444	2
81	1156	2
144	0	2
196	121	2
121	100	2
81	441	2
121	100	2
121	25	2
64	9	2
81	324	2
121	121	2
36	256	2
36	784	2
169	144	2
225	36	2
144	0	2
169	196	2
289	841	2
196	2401	2
16	3844	2
4	1849	2
49	16	2
64	225	2
100	729	2
289	1444	2
361	841	2
289	36	2
324	1	2
361	324	2
196	49	2
49	484	2
36	484	2
169	36	2
144	4	2
49	100	2
25	256	2
16	441	2
1	1089	2
25	1024	2
256	1296	2
576	2500	2
256	3600	2
49	5329	2
121	6889	2
196	4624	2
144	1444	2
121	81	2
225	49	2
225	121	2
289	1	2
256	49	2
81	729	2
1	3249	2
9	1600	2
16	16	2
225	121	2
225	1	2
144	529	2
324	729	2
625	0	2
400	1369	2
81	1521	2
81	64	2
225	9	2
196	196	2
81	36	2
64	484	2
121	121	2
169	2704	2
256	4900	2
361	3249	2
225	289	2
100	64	2
121	4	2
256	625	2
144	1600	2
9	961	2
64	324	2
256	49	2
196	225	2
196	1024	2
361	361	2
324	9	2
25	1	2
1	4	2
100	225	2
196	900	2
100	169	2
49	100	2
100	729	2
64	961	2
16	841	2
49	676	2
169	100	2
169	2304	2
144	900	2
289	169	2
361	1296	2
144	3969	2
121	4096	2
289	2209	2
324	1089	2
169	289	2
144	0	2
144	0	2
4	144	2
25	841	2
0	2601	2
144	4356	2
225	3721	2
225	1156	2
361	9	2
324	625	2
100	529	2
144	100	2
400	0	2
484	289	2
400	441	2
361	9	2
361	16	2
256	225	2
169	49	2
169	49	2
121	0	2
36	324	2
9	1024	2
9	2401	2
1	2401	2
64	324	2
4	64	2
100	324	2
256	49	2
256	625	2
289	625	2
289	4	2
144	256	2
196	841	2
324	676	2
169	225	2
16	400	2
64	289	2
256	121	2
121	16	2
25	169	2
81	1681	2
196	5476	2
121	6724	2
81	2500	2
169	729	2
196	484	2
100	1	2
81	441	2
169	169	2
121	225	2
64	1936	2
256	2704	2
625	1600	2
441	900	2
169	121	2
81	676	2
49	1521	2
64	225	2
121	49	2
256	49	2
484	64	2
324	676	2
64	961	2
121	529	2
484	1369	2
324	2500	2
16	841	2
25	36	2
144	225	2
49	576	2
9	49	2
121	225	2
169	441	2
16	324	2
16	441	2
196	9	2
225	784	2
36	1225	2
49	841	2
289	2704	2
289	5041	2
25	2304	2
25	729	2
256	729	2
144	121	2
16	625	2
196	1156	2
625	121	2
256	361	2
36	900	2
256	169	2
529	1849	2
64	4	2
0	841	2
81	324	2
100	676	2
16	1369	2
169	25	2
841	3844	2
625	3600	2
81	1	2
121	400	2
441	529	2
144	1521	2
1	81	2
25	169	2
64	841	2
1	9	2
0	484	2
256	121	2
441	25	2
100	25	2
100	49	2
196	196	2
49	25	2
4	1024	2
36	25	2
441	2704	2
361	3364	2
81	100	2
169	100	2
441	576	2
324	1600	2
256	729	2
729	2209	2
784	4225	2
169	676	2
64	1	2
289	625	2
196	1296	2
16	49	2
100	9	2
289	64	2
36	1	2
0	196	2
144	0	2
289	324	2
25	16	2
1	484	2
100	576	2
144	196	2
25	3136	2
100	4096	2
441	3364	2
196	1225	2
9	16	2
64	49	2
196	225	2
64	9	2
36	256	2
361	169	2
441	2116	2
25	225	2
0	729	2
81	361	2
64	169	2
16	1764	2
1	841	2
289	1225	2
441	4489	2
121	2704	2
100	676	2
400	4	2
361	1156	2
144	961	2
484	1600	2
729	6084	2
196	2025	2
36	400	2
169	676	2
225	196	2
36	400	2
100	441	2
529	1089	2
361	3364	2
64	676	2
196	1024	2
361	4624	2
81	2209	2
4	289	2
1	2704	2
36	1296	2
4	676	2
25	1369	2
324	169	2
400	121	2
144	9	2
361	36	2
784	841	2
441	3600	2
25	1936	2
49	784	2
289	3249	2
169	4489	2
36	400	2
100	324	2
64	36	2
0	121	2
1	289	2
225	2025	2
324	3969	2
64	900	2
64	81	2
256	4	2
121	0	2
9	729	2
169	121	2
900	1764	2
529	1849	2
49	9	2
121	36	2
361	4	2
36	625	2
1	1024	2
49	81	2
121	36	2
0	7744	2
49	5929	2
676	625	2
625	8464	2
144	8464	2
196	3969	2
441	1764	2
121	289	2
1	196	2
4	64	2
100	676	2
16	361	2
0	441	2
144	961	2
441	25	2
361	529	2
625	2401	2
1156	7225	2
529	6400	2
49	256	2
144	576	2
361	4	2
81	64	2
0	100	2
25	196	2
100	9	2
0	0	2
0	484	2
256	36	2
256	841	2
36	1600	2
64	1089	2
100	729	2
196	9	2
25	3025	2
225	2601	2
900	4	2
441	841	2
81	256	2
225	81	2
400	36	2
144	225	2
100	196	2
361	1936	2
225	7396	2
0	2601	2
16	144	2
441	289	2
289	484	2
1	81	2
16	289	2
289	2304	2
225	484	2
25	2809	2
64	4356	2
121	169	2
25	1369	2
81	2916	2
529	2116	2
529	1369	2
121	1225	2
169	2025	2
576	1936	2
361	1	2
36	1681	2
169	484	2
400	1849	2
36	3721	2
49	529	2
9	484	2
196	961	2
25	64	2
25	784	2
400	484	2
441	2500	2
49	289	2
225	144	2
1024	1369	2
625	0	2
64	5476	2
169	4624	2
625	0	2
225	576	2
9	196	2
81	961	2
100	2916	2
25	2304	2
64	2025	2
25	5929	2
64	5625	2
16	1	2
9	5184	2
324	3249	2
676	16	2
196	9	2
196	484	2
484	121	2
121	81	2
9	289	2
441	196	2
961	1849	2
289	25	2
25	4096	2
100	784	2
100	1444	2
25	1089	2
121	36	2
529	900	2
289	3136	2
25	2704	2
81	2025	2
256	1600	2
36	225	2
9	4	2
36	169	2
289	841	2
256	16	2
144	1296	2
289	256	2
196	1681	2
25	3969	2
196	4225	2
841	3364	2
484	289	2
81	484	2
169	169	2
256	49	2
1	2025	2
9	1936	2
144	576	2
441	4900	2
169	3364	2
100	900	2
361	784	2
324	784	2
0	1	2
9	484	2
81	1	2
81	4	2
4	576	2
16	25	2
484	1681	2
576	841	2
256	121	2
625	4	2
625	961	2
64	100	2
9	49	2
289	4761	2
289	10609	2
25	4356	2
100	961	2
841	625	2
625	64	2
64	4489	2
64	6400	2
144	1296	2
9	100	2
9	361	2
16	81	2
49	529	2
0	784	2
1	225	2
225	961	2
441	1849	2
225	121	2
289	64	2
484	81	2
196	36	2
25	400	2
196	81	2
576	1225	2
169	1296	2
9	81	2
121	196	2
144	144	2
4	225	2
4	324	2
361	256	2
576	625	2
36	484	2
4	841	2
49	1225	2
144	3249	2
81	961	2
484	1764	2
1156	4624	2
576	2209	2
144	64	2
441	484	2
625	4225	2
81	2704	2
4	25	2
256	0	2
225	144	2
1	1	2
25	1	2
289	961	2
81	324	2
36	1089	2
25	1521	2
1	169	2
4	1849	2
9	400	2
81	49	2
256	121	2
144	400	2
225	676	2
784	1	2
529	361	2
49	144	2
81	1369	2
625	1	2
676	625	2
169	256	2
289	1156	2
625	4356	2
144	1521	2
1	225	2
81	1024	2
225	784	2
0	400	2
36	1	2
100	900	2
225	1936	2
49	1024	2
196	1936	2
729	4489	2
441	2025	2
121	64	2
361	484	2
841	484	2
289	2704	2
16	1225	2
81	196	2
144	16	2
9	81	2
16	81	2
441	361	2
484	1764	2
36	625	2
16	324	2
169	1089	2
49	256	2
36	576	2
1	1089	2
169	25	2
121	25	2
4	289	2
121	16	2
400	2809	2
196	1936	2
144	225	2
484	1521	2
400	2116	2
49	225	2
100	2116	2
625	16	2
441	676	2
64	324	2
121	36	2
121	49	2
25	16	2
81	1	2
49	169	2
324	625	2
144	289	2
225	256	2
676	900	2
529	1225	2
121	225	2
324	256	2
900	2304	2
324	1600	2
16	1	2
0	225	2
169	3600	2
81	1296	2
81	196	2
529	144	2
576	25	2
81	1	2
36	4	2
289	676	2
400	225	2
9	2209	2
1	4096	2
196	529	2
196	324	2
0	3844	2
0	4489	2
144	121	2
121	169	2
81	64	2
441	1849	2
676	4489	2
121	676	2
25	0	2
225	1024	2
225	3969	2
4	3249	2
9	2704	2
324	4900	2
144	3481	2
0	100	2
81	9	2
576	729	2
196	961	2
9	0	2
100	9	2
225	121	2
9	0	2
4	361	2
144	81	2
81	0	2
1	289	2
36	225	2
729	625	2
784	1369	2
324	144	2
324	49	2
324	841	2
121	441	2
9	9	2
36	9	2
100	529	2
4	9	2
0	196	2
256	256	2
400	1521	2
1	25	2
9	256	2
256	400	2
441	1296	2
64	25	2
169	144	2
729	2601	2
361	1444	2
81	9	2
576	121	2
1600	2401	2
1600	900	2
1849	4	2
2209	324	2
529	1296	2
0	1	2
529	625	2
2916	121	2
1225	1089	2
625	0	2
1681	361	2
36	81	2
484	36	2
3481	1296	2
784	961	2
361	49	2
1225	9	2
2116	225	2
1444	121	2
36	1764	2
196	576	2
676	100	2
1024	1936	2
1	2601	2
576	169	2
144	36	2
144	1600	2
144	1089	2
3969	100	2
729	49	2
1369	576	2
784	36	2
4	361	2
256	64	2
784	1156	2
729	81	2
1681	4	2
64	676	2
4489	1089	2
8464	4	2
1089	16	2
2809	3136	2
7056	1936	2
6084	225	2
6241	324	2
7396	121	2
5184	16	2
1369	144	2
121	256	2
169	2304	2
2209	784	2
6400	121	2
3249	1521	2
36	1225	2
3136	961	2
5041	2809	2
2025	1	2
196	676	2
2601	144	2
3364	625	2
3249	36	2
256	144	2
1024	25	2
1156	1681	2
100	4096	2
16	529	2
9	0	2
144	1764	2
4	3844	2
1225	324	2
729	4	2
49	961	2
1296	484	2
3364	324	2
5476	361	2
4489	36	2
1089	9	2
36	441	2
2500	4	2
7225	324	2
3969	81	2
100	256	2
1296	841	2
3721	2401	2
3721	256	2
5041	169	2
6241	2500	2
4096	1681	2
3844	4	2
7569	1	2
4489	729	2
81	81	2
2916	484	2
2209	1	2
2916	576	2
8649	361	2
7569	2116	2
16	81	2
841	1849	2
169	16	2
121	576	2
2025	900	2
1849	2601	2
36	576	2
1	1681	2
1296	6241	2
841	2116	2
121	9	2
169	169	2
9	1296	2
25	0	2
784	625	2
3969	256	2
3136	1764	2
1936	100	2
2601	9	2
4096	784	2
2916	784	2
289	121	2
529	289	2
3721	1	2
4624	196	2
900	1936	2
529	441	2
2704	289	2
2809	49	2
3364	49	2
3721	289	2
441	729	2
1156	1	2
2209	9	2
324	2601	2
441	2601	2
3600	1	2
4761	25	2
841	900	2
100	625	2
529	1	2
1600	625	2
784	1764	2
1024	36	2
961	1444	2
1444	64	2
7225	1296	2
6400	16	2
5329	100	2
6889	3600	2
5776	2809	2
3481	4	2
2401	64	2
784	2601	2
4	1156	2
400	36	2
1156	81	2
625	1296	2
1	64	2
289	361	2
441	81	2
441	841	2
121	4	2
1156	81	2
5929	841	2
2500	529	2
16	841	2
100	1296	2
9	25	2
4	81	2
900	529	2
2209	256	2
4096	144	2
8281	9	2
3249	16	2
2916	1225	2
9801	2500	2
1849	121	2
324	36	2
1764	2401	2
900	2401	2
9	4	2
64	0	2
1681	784	2
441	121	2
256	256	2
196	100	2
121	1444	2
1156	0	2
484	676	2
64	361	2
64	1764	2
36	36	2
5476	25	2
6724	2116	2
676	1444	2
169	25	2
36	36	2
16	361	2
100	121	2
25	64	2
900	100	2
1089	961	2
64	100	2
1296	1	2
5329	1225	2
1156	1600	2
64	256	2
4	1444	2
36	81	2
100	961	2
144	36	2
100	324	2
16	196	2
64	324	2
81	25	2
64	1024	2
225	2809	2
25	441	2
256	0	2
2025	900	2
2209	1764	2
1156	36	2
2209	0	2
2500	961	2
0	529	2
3025	169	2
3969	36	2
1225	484	2
169	25	2
9	576	2
484	4	2
529	729	2
144	121	2
4	4	2
81	400	2
1089	625	2
1936	36	2
1156	0	2
676	2209	2
784	2025	2
361	4	2
100	1	2
0	324	2
441	121	2
16	25	2
2809	324	2
4356	1849	2
841	400	2
9	0	2
64	676	2
576	1024	2
729	400	2
196	1764	2
0	0	2
0	361	2
36	0	2
1225	361	2
1936	2704	2
529	961	2
100	4	2
256	361	2
169	1936	2
169	225	2
361	100	2
225	225	2
1089	784	2
1024	9	2
2304	0	2
3025	676	2
1156	361	2
400	169	2
529	169	2
289	36	2
25	9	2
16	729	2
25	169	2
64	256	2
169	121	2
16	1	2
100	361	2
25	841	2
49	121	2
196	196	2
676	1600	2
289	1089	2
144	0	2
400	1	2
121	441	2
676	36	2
841	121	2
2601	256	2
2116	1369	2
64	25	2
4	144	2
196	676	2
225	2401	2
0	81	2
1	196	2
49	289	2
1	676	2
1	0	2
529	225	2
1521	2704	2
1681	1296	2
1296	1	2
900	361	2
256	2209	2
49	441	2
361	36	2
169	225	2
121	784	2
36	9	2
400	49	2
2304	225	2
1024	81	2
4	900	2
64	1296	2
144	36	2
100	1	2
289	361	2
49	9	2
841	729	2
1444	441	2
576	121	2
121	1521	2
0	2209	2
1	225	2
484	64	2
1600	1521	2
441	1444	2
64	0	2
676	9	2
784	256	2
484	4	2
4900	484	2
2025	0	2
256	1089	2
1225	256	2
225	169	2
7396	4	2
5184	324	2
25	4	2
2809	256	2
121	3136	2
6084	1849	2
6889	0	2
484	256	2
15876	3364	2
18769	1369	2
8281	64	2
2500	9	2
289	225	2
784	1	2
6561	81	2
9409	576	2
3025	1521	2
169	100	2
25	16	2
576	400	2
625	256	2
49	961	2
64	1369	2
256	36	2
400	324	2
2025	25	2
10000	1225	2
12100	3136	2
2025	324	2
1156	144	2
2116	361	2
324	1521	2
25	9	2
81	81	2
576	484	2
16	676	2
576	9	2
25	1	2
196	625	2
961	49	2
12544	729	2
20164	289	2
13456	25	2
6084	36	2
225	225	1
2704	256	1
3969	1225	1
2304	169	1
3600	196	1
5184	2916	1
3481	2304	1
1849	16	1
900	196	1
729	256	1
576	196	1
441	121	1
1156	81	1
1089	2025	1
4	841	1
841	4	1
1369	576	1
1156	1089	1
2116	361	1
2601	1764	1
2500	100	1
1521	1600	1
169	16	1
6889	529	1
13225	196	1
7744	625	1
2304	36	1
1089	1089	1
1681	4489	1
1600	1369	1
1521	4	1
2209	1024	1
529	2704	1
625	81	1
441	100	1
676	625	1
1521	1024	1
1156	4	1
4096	1	1
6561	841	1
1521	169	1
16	961	1
1	784	1
1296	1	1
5476	25	1
1521	144	1
900	324	1
1296	1600	1
361	121	1
1849	1	1
64	1681	1
25	2209	1
9	36	1
676	1	1
2025	1024	1
1225	625	1
100	25	1
4	16	1
49	676	1
100	1	1
121	361	1
9	400	1
576	1849	1
2601	121	1
1681	1764	1
49	16	1
144	784	1
1156	4	1
5041	324	1
9025	4225	1
8100	2209	1
3364	9	1
676	36	1
9	1600	1
2809	144	1
4096	441	1
1	100	1
2209	1369	1
1225	64	1
729	64	1
1296	484	1
625	961	1
36	0	1
1	9	1
9	441	1
36	16	1
121	1369	1
256	729	1
1225	144	1
16	100	1
144	121	1
361	121	1
1089	1521	1
0	361	1
16	25	1
484	1521	1
484	2116	1
49	25	1
0	0	1
1	1089	1
1	576	1
0	81	1
64	4	1
225	729	1
2916	4	1
1681	784	1
100	169	1
1089	2025	1
100	196	1
4	4	1
441	1521	1
1369	1681	1
576	1	1
225	16	1
900	2209	1
841	1156	1
144	121	1
289	4	1
529	729	1
400	169	1
784	9	1
2401	900	1
2916	2601	1
961	81	1
289	400	1
676	144	1
2500	625	1
6724	784	1
8649	2116	1
3136	1	1
144	324	1
3025	225	1
729	361	1
9	36	1
144	0	1
441	9	1
36	1849	1
324	4096	1
1936	400	1
2500	0	1
2809	1444	1
4356	2209	1
2500	36	1
121	4	1
4225	1089	1
5329	484	1
3721	225	1
3025	169	1
4096	25	1
3025	25	1
324	256	1
36	169	1
25	1600	1
361	289	1
400	49	1
9	1600	1
16	1681	1
441	1	1
81	0	1
2116	1156	1
3481	676	1
3025	16	1
1089	25	1
225	625	1
121	64	1
784	36	1
2209	729	1
729	1936	1
81	144	1
4	2025	1
289	49	1
256	1089	1
3249	169	1
784	729	1
1444	529	1
3136	1369	1
256	100	1
25	1296	1
576	5776	1
64	2116	1
100	49	1
676	961	1
256	2209	1
3481	121	1
1225	121	1
100	225	1
576	529	1
0	81	1
36	64	1
361	361	1
256	16	1
4	1024	1
1156	441	1
3600	64	1
1369	4	1
169	576	1
625	1	1
1156	900	1
2116	225	1
6084	36	1
5476	1156	1
484	1156	1
400	25	1
1089	4	1
1849	1296	1
2304	1444	1
484	100	1
529	196	1
1521	676	1
225	16	1
81	900	1
1156	144	1
1681	2304	1
576	9	1
1024	1089	1
1225	169	1
361	1521	1
3481	16	1
625	100	1
49	3249	1
225	2025	1
441	25	1
1024	36	1
7056	2601	1
5476	784	1
625	169	1
64	64	1
3481	900	1
11664	16	1
4761	576	1
49	144	1
324	676	1
400	36	1
576	144	1
289	441	1
729	256	1
361	961	1
2916	841	1
7396	100	1
4489	121	1
256	169	1
144	0	1
49	441	1
625	49	1
1444	100	1
5776	3364	1
9025	4900	1
6084	361	1
3600	9	1
2116	1296	1
784	961	1
400	25	1
676	9	1
1024	961	1
9	25	1
1089	676	1
361	64	1
256	1369	1
0	9	1
1600	784	1
2601	400	1
3844	1849	1
3025	25	1
49	36	1
2304	2916	1
2025	1849	1
1	81	1
25	81	1
784	400	1
1024	100	1
361	64	1
441	484	1
400	2116	1
25	196	1
9	81	1
1	400	1
961	529	1
3249	1024	1
576	1764	1
900	289	1
1225	1225	1
169	49	1
1600	225	1
7225	196	1
6561	169	1
3481	49	1
1521	2304	1
4	4225	1
676	324	1
81	64	1
1225	1024	1
1849	2500	1
25	121	1
289	0	1
169	784	1
676	529	1
1444	100	1
1	16	1
1024	361	1
100	0	1
100	529	1
49	81	1
256	1225	1
961	4	1
16	169	1
3249	676	1
7921	1521	1
5476	25	1
2025	169	1
324	3249	1
49	1764	1
100	81	1
121	144	1
900	196	1
2025	16	1
3721	256	1
5041	81	1
4096	625	1
289	324	1
729	1369	1
225	169	1
9	1225	1
361	400	1
841	1444	1
484	289	1
1521	1681	1
2025	169	1
1156	576	1
1521	3249	1
2704	1296	1
3249	0	1
529	484	1
900	2116	1
5476	169	1
10609	49	1
9216	961	1
1369	2025	1
441	16	1
25	9	1
3481	900	1
3025	529	1
576	324	1
100	225	1
0	169	1
225	0	1
36	841	1
169	196	1
196	169	1
4	4	1
1	25	1
441	900	1
225	1600	1
9	36	1
256	16	1
676	1849	1
169	1225	1
196	9	1
1849	1	1
2401	900	1
625	256	1
81	100	1
484	144	1
400	1156	1
100	36	1
400	900	1
4	289	1
100	1521	1
49	64	1
64	400	1
49	1225	1
25	2116	1
0	1	1
361	81	1
1444	2809	1
729	1521	1
361	64	1
1024	1369	1
841	4900	1
121	784	1
121	441	1
324	36	1
16	16	1
169	625	1
25	576	1
144	324	1
64	256	1
4	1521	1
36	2704	1
256	81	1
121	9	1
121	324	1
676	1	1
841	1600	1
289	961	1
361	676	1
841	4900	1
289	6241	1
0	841	1
16	144	1
144	2209	1
1	2025	1
49	9	1
36	4	1
196	676	1
1	0	1
0	900	1
289	49	1
529	64	1
81	441	1
81	529	1
676	841	1
729	2304	1
169	121	1
361	169	1
841	2916	1
169	1681	1
9	9	1
36	169	1
289	3364	1
25	1369	1
0	36	1
169	36	1
324	625	1
81	9	1
169	529	1
784	144	1
576	784	1
100	64	1
196	400	1
484	64	1
36	9	1
121	1296	1
36	1089	1
0	25	1
49	36	1
25	9	1
169	1225	1
441	3025	1
144	256	1
256	4	1
961	961	1
729	1600	1
225	0	1
400	36	1
625	361	1
81	121	1
1	225	1
81	1	1
144	729	1
36	64	1
144	225	1
36	400	1
196	2500	1
25	441	1
196	0	1
1156	900	1
900	1296	1
225	1	1
484	9	1
1225	1681	1
484	900	1
49	121	1
144	36	1
169	529	1
4	169	1
16	81	1
81	169	1
144	1444	1
1	225	1
0	0	1
289	1089	1
196	1296	1
1	400	1
0	1764	1
225	0	1
324	256	1
121	289	1
289	361	1
441	169	1
100	169	1
81	25	1
484	1681	1
441	4096	1
25	784	1
16	16	1
256	1156	1
49	2025	1
64	100	1
0	1	1
289	784	1
121	441	1
25	100	1
361	9	1
784	289	1
289	0	1
196	576	1
576	9	1
529	484	1
100	64	1
144	1	1
529	1225	1
196	1444	1
0	0	1
36	4	1
289	1225	1
144	1156	1
49	0	1
324	36	1
529	841	1
100	169	1
25	81	1
324	225	1
256	1089	1
4	36	1
25	841	1
196	169	1
256	1156	1
1	81	1
4	576	1
144	441	1
121	1089	1
36	49	1
441	676	1
1024	3969	1
289	1369	1
100	0	1
441	324	1
529	1444	1
64	25	1
49	196	1
361	324	1
196	1089	1
4	1	1
49	36	1
256	484	1
36	324	1
16	144	1
16	36	1
169	256	1
16	4	1
9	841	1
225	64	1
289	400	1
64	36	1
121	0	1
529	1444	1
361	2304	1
81	64	1
225	0	1
484	1024	1
121	900	1
9	25	1
169	0	1
256	484	1
0	1	1
25	676	1
121	1	1
289	900	1
9	0	1
1	324	1
361	576	1
484	1936	1
169	121	1
484	196	1
1156	2704	1
484	1681	1
49	0	1
196	49	1
400	1521	1
81	441	1
36	36	1
289	169	1
196	1024	1
0	64	1
9	9	1
196	441	1
81	676	1
0	9	1
81	64	1
324	225	1
100	49	1
9	784	1
144	729	1
256	4	1
64	9	1
81	64	1
441	121	1
400	961	1
49	256	1
121	81	1
484	1600	1
169	2116	1
0	121	1
25	16	1
144	676	1
25	400	1
4	4	1
225	49	1
400	676	1
36	25	1
1	225	1
289	100	1
441	1089	1
144	121	1
289	9	1
676	961	1
324	1156	1
36	25	1
169	100	1
484	1936	1
121	1156	1
9	16	1
121	16	1
169	225	1
9	9	1
25	144	1
324	81	1
225	841	1
4	81	1
16	9	1
324	625	1
225	900	1
1	225	1
1	961	1
100	16	1
100	225	1
49	225	1
169	169	1
289	484	1
100	625	1
144	121	1
576	1156	1
484	2401	1
121	324	1
169	4	1
400	961	1
196	1521	1
16	25	1
121	0	1
441	676	1
81	400	1
9	81	1
4	1	1
64	529	1
4	49	1
16	196	1
400	64	1
625	729	1
196	36	1
324	4	1
784	529	1
441	784	1
64	0	1
121	1	1
289	841	1
64	841	1
25	16	1
225	121	1
225	1089	1
9	484	1
16	9	1
289	256	1
256	625	1
9	16	1
9	441	1
144	36	1
169	484	1
49	0	1
64	196	1
100	36	1
36	256	1
49	64	1
196	256	1
256	1296	1
100	784	1
121	100	1
225	289	1
196	900	1
121	324	1
144	49	1
169	289	1
64	576	1
49	64	1
196	9	1
324	225	1
169	169	1
121	9	1
225	4	1
169	144	1
100	100	1
169	16	1
289	0	1
196	144	1
81	36	1
64	1	1
100	169	1
49	529	1
49	169	1
100	64	1
81	529	1
49	529	1
144	64	1
400	100	1
324	484	1
100	169	1
144	4	1
324	324	1
144	729	1
16	36	1
25	16	1
144	324	1
144	729	1
144	81	1
289	144	1
289	1156	1
100	576	1
81	16	1
289	0	1
361	441	1
144	121	1
169	36	1
324	64	1
144	529	1
25	64	1
100	0	1
225	400	1
49	625	1
0	36	1
25	36	1
121	576	1
49	256	1
100	121	1
324	196	1
289	25	1
121	49	1
121	9	1
256	49	1
196	361	1
64	81	1
121	25	1
256	841	1
121	1225	1
100	196	1
256	144	1
225	1089	1
36	784	1
25	16	1
225	49	1
225	400	1
36	36	1
9	121	1
121	9	1
144	400	1
49	25	1
64	16	1
196	400	1
144	900	1
100	100	1
289	121	1
400	1225	1
169	841	1
144	9	1
289	16	1
225	324	1
49	100	1
64	0	1
256	196	1
196	729	1
49	144	1
81	4	1
169	100	1
81	225	1
64	36	1
225	169	1
256	64	1
144	256	1
169	1	1
289	0	1
169	256	1
81	400	1
121	256	1
196	676	1
169	1296	1
169	576	1
256	144	1
121	400	1
36	529	1
64	81	1
196	4	1
196	144	1
81	169	1
64	9	1
121	9	1
121	169	1
81	81	1
121	0	1
169	36	1
144	225	1
121	81	1
81	0	0
36	36	0
16	196	0
144	100	0
361	100	0
289	361	0
121	289	0
121	36	0
169	81	0
64	324	0
25	196	0
121	25	0
289	121	0
169	484	0
100	196	0
225	36	0
441	576	0
225	625	0
49	100	0
100	441	0
289	144	0
121	576	0
49	64	0
324	484	0
529	2209	0
100	676	0
36	4	0
256	289	0
256	1296	0
36	81	0
100	36	0
361	400	0
121	961	0
0	16	0
49	1	0
256	400	0
25	196	0
16	121	0
49	4	0
225	400	0
49	9	0
25	625	0
256	144	0
256	121	0
36	4	0
121	25	0
576	484	0
441	1089	0
81	36	0
169	25	0
400	1681	0
100	1600	0
0	36	0
25	36	0
169	729	0
25	225	0
16	36	0
324	144	0
324	841	0
0	16	0
1	576	0
289	289	0
400	1600	0
16	16	0
9	625	0
324	324	0
361	1296	0
256	121	0
784	729	0
1156	3721	0
324	1600	0
81	0	0
484	324	0
529	1681	0
16	100	0
4	225	0
225	225	0
121	1024	0
1	1	0
36	64	0
361	484	0
169	361	0
4	841	0
36	1369	0
144	0	0
25	36	0
16	225	0
256	1	0
289	576	0
16	100	0
49	9	0
400	1764	0
324	2916	0
49	121	0
144	0	0
441	1156	0
144	1225	0
9	1	0
144	0	0
324	625	0
4	81	0
4	169	0
225	169	0
400	1225	0
9	1	0
4	576	0
100	169	0
144	1089	0
16	16	0
324	64	0
1089	2304	0
324	1296	0
1	64	0
225	9	0
784	1849	0
256	841	0
49	25	0
256	100	0
256	1089	0
9	64	0
36	121	0
441	361	0
289	1225	0
16	16	0
100	81	0
400	256	0
100	144	0
4	1089	0
9	1444	0
144	4	0
36	144	0
36	4	0
400	1089	0
361	3136	0
25	529	0
36	0	0
400	900	0
324	1521	0
49	1	0
169	49	0
484	529	0
144	441	0
0	49	0
64	1	0
196	400	0
4	16	0
4	361	0
225	25	0
529	1024	0
169	100	0
225	36	0
729	441	0
324	1024	0
9	16	0
121	36	0
729	2116	0
324	1444	0
16	16	0
81	9	0
196	529	0
16	225	0
9	16	0
289	324	0
324	1681	0
25	225	0
25	49	0
289	400	0
121	841	0
16	400	0
1	1764	0
196	25	0
289	784	0
100	36	0
256	225	0
400	324	0
64	484	0
16	49	0
400	1156	0
576	3481	0
100	676	0
81	9	0
441	1024	0
256	1936	0
4	36	0
64	36	0
361	625	0
81	625	0
1	49	0
49	16	0
225	361	0
49	16	0
25	676	0
289	144	0
256	196	0
0	1	0
1	81	0
441	400	0
441	1089	0
121	36	0
225	16	0
484	1600	0
196	1521	0
36	25	0
256	36	0
484	961	0
81	441	0
36	4	0
441	289	0
841	1089	0
324	16	0
100	676	0
225	225	0
49	1225	0
169	144	0
36	961	0
361	256	0
361	1156	0
25	9	0
121	256	0
529	3364	0
196	1600	0
64	1	0
361	361	0
400	1849	0
16	144	0
9	144	0
529	324	0
841	1156	0
225	4	0
64	81	0
196	361	0
25	441	0
16	100	0
25	64	0
121	225	0
1	0	0
4	1024	0
64	361	0
144	64	0
9	1	0
36	16	0
400	729	0
256	1849	0
16	256	0
100	121	0
529	2025	0
289	1681	0
64	4	0
196	1	0
324	529	0
16	36	0
0	289	0
256	49	0
400	961	0
9	0	0
0	400	0
256	529	0
400	2025	0
144	225	0
400	289	0
1024	2916	0
441	1681	0
64	36	0
256	1	0
676	1681	0
225	676	0
36	81	0
256	16	0
289	576	0
4	1	0
1	196	0
196	361	0
4	36	0
81	1369	0
36	64	0
289	361	0
144	225	0
4	961	0
64	1521	0
225	0	0
64	25	0
9	225	0
169	1	0
289	625	0
100	196	0
121	49	0
484	1936	0
361	3025	0
36	256	0
81	36	0
289	1369	0
36	1369	0
4	1	0
81	4	0
289	529	0
4	81	0
4	196	0
256	81	0
676	1089	0
225	121	0
225	25	0
676	400	0
